# OpenSignals Text File Format. Version 1
# {"98:D3:51:FD:71:01": {"position": 0, "device": "bitalino_rev", "device name": "98:D3:51:FD:71:01", "device connection": "BTH98:D3:51:FD:71:01", "sampling rate": 1000, "resolution": [4, 1, 1, 1, 1, 10], "firmware version": 1282, "comments": "", "keywords": "", "mode": 0, "sync interval": 2, "date": "2023-6-23", "time": "13:49:3.771", "channels": [1], "sensor": ["EMGBITREV"], "label": ["A1"], "column": ["nSeq", "I1", "I2", "O1", "O2", "A1"], "special": [{}], "digital IO": [0, 0, 1, 1], "convertedValues": 0}}
# EndOfHeader
0	0	0	0	0	510	
1	0	0	0	0	508	
2	0	0	0	0	508	
3	0	0	0	0	507	
4	0	0	0	0	508	
5	0	0	0	0	510	
6	0	0	0	0	510	
7	0	0	0	0	507	
8	0	0	0	0	505	
9	0	0	0	0	504	
10	0	0	0	0	508	
11	0	0	0	0	507	
12	0	0	0	0	512	
13	0	0	0	0	504	
14	0	0	0	0	504	
15	0	0	0	0	506	
0	0	0	0	0	508	
1	0	0	0	0	511	
2	0	0	0	0	511	
3	0	0	0	0	508	
4	0	0	0	0	508	
5	0	0	0	0	508	
6	0	0	0	0	510	
7	0	0	0	0	510	
8	0	0	0	0	515	
9	0	0	0	0	508	
10	0	0	0	0	501	
11	0	0	0	0	502	
12	0	0	0	0	496	
13	0	0	0	0	502	
14	0	0	0	0	507	
15	0	0	0	0	512	
0	0	0	0	0	513	
1	0	0	0	0	512	
2	0	0	0	0	515	
3	0	0	0	0	514	
4	0	0	0	0	502	
5	0	0	0	0	497	
6	0	0	0	0	502	
7	0	0	0	0	504	
8	0	0	0	0	506	
9	0	0	0	0	507	
10	0	0	0	0	509	
11	0	0	0	0	508	
12	0	0	0	0	512	
13	0	0	0	0	507	
14	0	0	0	0	512	
15	0	0	0	0	513	
0	0	0	0	0	513	
1	0	0	0	0	512	
2	0	0	0	0	504	
3	0	0	0	0	506	
4	0	0	0	0	510	
5	0	0	0	0	511	
6	0	0	0	0	508	
7	0	0	0	0	505	
8	0	0	0	0	505	
9	0	0	0	0	499	
10	0	0	0	0	504	
11	0	0	0	0	508	
12	0	0	0	0	509	
13	0	0	0	0	511	
14	0	0	0	0	509	
15	0	0	0	0	510	
0	0	0	0	0	510	
1	0	0	0	0	511	
2	0	0	0	0	511	
3	0	0	0	0	511	
4	0	0	0	0	506	
5	0	0	0	0	507	
6	0	0	0	0	507	
7	0	0	0	0	501	
8	0	0	0	0	502	
9	0	0	0	0	506	
10	0	0	0	0	509	
11	0	0	0	0	510	
12	0	0	0	0	512	
13	0	0	0	0	509	
14	0	0	0	0	504	
15	0	0	0	0	504	
0	0	0	0	0	506	
1	0	0	0	0	507	
2	0	0	0	0	507	
3	0	0	0	0	509	
4	0	0	0	0	514	
5	0	0	0	0	513	
6	0	0	0	0	510	
7	0	0	0	0	505	
8	0	0	0	0	501	
9	0	0	0	0	504	
10	0	0	0	0	506	
11	0	0	0	0	508	
12	0	0	0	0	509	
13	0	0	0	0	508	
14	0	0	0	0	508	
15	0	0	0	0	508	
0	0	0	0	0	509	
1	0	0	0	0	507	
2	0	0	0	0	506	
3	0	0	0	0	507	
4	0	0	0	0	508	
5	0	0	0	0	510	
6	0	0	0	0	511	
7	0	0	0	0	517	
8	0	0	0	0	514	
9	0	0	0	0	510	
10	0	0	0	0	512	
11	0	0	0	0	505	
12	0	0	0	0	493	
13	0	0	0	0	496	
14	0	0	0	0	504	
15	0	0	0	0	508	
0	0	0	0	0	505	
1	0	0	0	0	507	
2	0	0	0	0	508	
3	0	0	0	0	509	
4	0	0	0	0	512	
5	0	0	0	0	507	
6	0	0	0	0	505	
7	0	0	0	0	507	
8	0	0	0	0	509	
9	0	0	0	0	510	
10	0	0	0	0	510	
11	0	0	0	0	512	
12	0	0	0	0	514	
13	0	0	0	0	515	
14	0	0	0	0	515	
15	0	0	0	0	509	
0	0	0	0	0	503	
1	0	0	0	0	504	
2	0	0	0	0	505	
3	0	0	0	0	511	
4	0	0	0	0	510	
5	0	0	0	0	503	
6	0	0	0	0	496	
7	0	0	0	0	503	
8	0	0	0	0	505	
9	0	0	0	0	508	
10	0	0	0	0	511	
11	0	0	0	0	513	
12	0	0	0	0	514	
13	0	0	0	0	509	
14	0	0	0	0	507	
15	0	0	0	0	509	
0	0	0	0	0	505	
1	0	0	0	0	505	
2	0	0	0	0	507	
3	0	0	0	0	507	
4	0	0	0	0	501	
5	0	0	0	0	504	
6	0	0	0	0	507	
7	0	0	0	0	505	
8	0	0	0	0	509	
9	0	0	0	0	510	
10	0	0	0	0	512	
11	0	0	0	0	511	
12	0	0	0	0	507	
13	0	0	0	0	506	
14	0	0	0	0	509	
15	0	0	0	0	509	
0	0	0	0	0	512	
1	0	0	0	0	512	
2	0	0	0	0	510	
3	0	0	0	0	510	
4	0	0	0	0	510	
5	0	0	0	0	509	
6	0	0	0	0	512	
7	0	0	0	0	510	
8	0	0	0	0	501	
9	0	0	0	0	502	
10	0	0	0	0	504	
11	0	0	0	0	507	
12	0	0	0	0	508	
13	0	0	0	0	507	
14	0	0	0	0	507	
15	0	0	0	0	509	
0	0	0	0	0	509	
1	0	0	0	0	511	
2	0	0	0	0	511	
3	0	0	0	0	503	
4	0	0	0	0	503	
5	0	0	0	0	505	
6	0	0	0	0	508	
7	0	0	0	0	507	
8	0	0	0	0	505	
9	0	0	0	0	508	
10	0	0	0	0	509	
11	0	0	0	0	512	
12	0	0	0	0	508	
13	0	0	0	0	506	
14	0	0	0	0	510	
15	0	0	0	0	512	
0	0	0	0	0	511	
1	0	0	0	0	506	
2	0	0	0	0	512	
3	0	0	0	0	514	
4	0	0	0	0	513	
5	0	0	0	0	507	
6	0	0	0	0	500	
7	0	0	0	0	495	
8	0	0	0	0	503	
9	0	0	0	0	507	
10	0	0	0	0	507	
11	0	0	0	0	507	
12	0	0	0	0	507	
13	0	0	0	0	509	
14	0	0	0	0	507	
15	0	0	0	0	509	
0	0	0	0	0	509	
1	0	0	0	0	509	
2	0	0	0	0	509	
3	0	0	0	0	508	
4	0	0	0	0	507	
5	0	0	0	0	510	
6	0	0	0	0	508	
7	0	0	0	0	508	
8	0	0	0	0	508	
9	0	0	0	0	506	
10	0	0	0	0	508	
11	0	0	0	0	507	
12	0	0	0	0	508	
13	0	0	0	0	508	
14	0	0	0	0	510	
15	0	0	0	0	508	
0	0	0	0	0	505	
1	0	0	0	0	508	
2	0	0	0	0	508	
3	0	0	0	0	511	
4	0	0	0	0	513	
5	0	0	0	0	511	
6	0	0	0	0	510	
7	0	0	0	0	510	
8	0	0	0	0	512	
9	0	0	0	0	508	
10	0	0	0	0	496	
11	0	0	0	0	490	
12	0	0	0	0	498	
13	0	0	0	0	504	
14	0	0	0	0	508	
15	0	0	0	0	512	
0	0	0	0	0	511	
1	0	0	0	0	510	
2	0	0	0	0	512	
3	0	0	0	0	512	
4	0	0	0	0	513	
5	0	0	0	0	507	
6	0	0	0	0	505	
7	0	0	0	0	507	
8	0	0	0	0	504	
9	0	0	0	0	505	
10	0	0	0	0	505	
11	0	0	0	0	507	
12	0	0	0	0	511	
13	0	0	0	0	511	
14	0	0	0	0	510	
15	0	0	0	0	511	
0	0	0	0	0	511	
1	0	0	0	0	509	
2	0	0	0	0	506	
3	0	0	0	0	507	
4	0	0	0	0	505	
5	0	0	0	0	505	
6	0	0	0	0	505	
7	0	0	0	0	508	
8	0	0	0	0	513	
9	0	0	0	0	511	
10	0	0	0	0	505	
11	0	0	0	0	507	
12	0	0	0	0	508	
13	0	0	0	0	512	
14	0	0	0	0	515	
15	0	0	0	0	514	
0	0	0	0	0	505	
1	0	0	0	0	501	
2	0	0	0	0	494	
3	0	0	0	0	498	
4	0	0	0	0	505	
5	0	0	0	0	508	
6	0	0	0	0	510	
7	0	0	0	0	508	
8	0	0	0	0	508	
9	0	0	0	0	510	
10	0	0	0	0	511	
11	0	0	0	0	512	
12	0	0	0	0	513	
13	0	0	0	0	509	
14	0	0	0	0	509	
15	0	0	0	0	510	
0	0	0	0	0	509	
1	0	0	0	0	512	
2	0	0	0	0	511	
3	0	0	0	0	510	
4	0	0	0	0	507	
5	0	0	0	0	507	
6	0	0	0	0	509	
7	0	0	0	0	502	
8	0	0	0	0	506	
9	0	0	0	0	507	
10	0	0	0	0	501	
11	0	0	0	0	499	
12	0	0	0	0	505	
13	0	0	0	0	510	
14	0	0	0	0	511	
15	0	0	0	0	510	
0	0	0	0	0	508	
1	0	0	0	0	509	
2	0	0	0	0	511	
3	0	0	0	0	511	
4	0	0	0	0	510	
5	0	0	0	0	504	
6	0	0	0	0	506	
7	0	0	0	0	510	
8	0	0	0	0	510	
9	0	0	0	0	512	
10	0	0	0	0	507	
11	0	0	0	0	503	
12	0	0	0	0	502	
13	0	0	0	0	502	
14	0	0	0	0	505	
15	0	0	0	0	507	
0	0	0	0	0	510	
1	0	0	0	0	511	
2	0	0	0	0	511	
3	0	0	0	0	510	
4	0	0	0	0	512	
5	0	0	0	0	509	
6	0	0	0	0	507	
7	0	0	0	0	509	
8	0	0	0	0	507	
9	0	0	0	0	506	
10	0	0	0	0	507	
11	0	0	0	0	510	
12	0	0	0	0	512	
13	0	0	0	0	518	
14	0	0	0	0	519	
15	0	0	0	0	508	
0	0	0	0	0	500	
1	0	0	0	0	493	
2	0	0	0	0	495	
3	0	0	0	0	500	
4	0	0	0	0	508	
5	0	0	0	0	510	
6	0	0	0	0	510	
7	0	0	0	0	513	
8	0	0	0	0	509	
9	0	0	0	0	504	
10	0	0	0	0	502	
11	0	0	0	0	504	
12	0	0	0	0	508	
13	0	0	0	0	511	
14	0	0	0	0	510	
15	0	0	0	0	510	
0	0	0	0	0	509	
1	0	0	0	0	512	
2	0	0	0	0	512	
3	0	0	0	0	509	
4	0	0	0	0	505	
5	0	0	0	0	507	
6	0	0	0	0	510	
7	0	0	0	0	505	
8	0	0	0	0	507	
9	0	0	0	0	508	
10	0	0	0	0	509	
11	0	0	0	0	507	
12	0	0	0	0	508	
13	0	0	0	0	509	
14	0	0	0	0	509	
15	0	0	0	0	507	
0	0	0	0	0	508	
1	0	0	0	0	512	
2	0	0	0	0	512	
3	0	0	0	0	510	
4	0	0	0	0	514	
5	0	0	0	0	507	
6	0	0	0	0	503	
7	0	0	0	0	505	
8	0	0	0	0	504	
9	0	0	0	0	510	
10	0	0	0	0	512	
11	0	0	0	0	510	
12	0	0	0	0	502	
13	0	0	0	0	499	
14	0	0	0	0	506	
15	0	0	0	0	512	
0	0	0	0	0	508	
1	0	0	0	0	508	
2	0	0	0	0	510	
3	0	0	0	0	508	
4	0	0	0	0	504	
5	0	0	0	0	508	
6	0	0	0	0	508	
7	0	0	0	0	504	
8	0	0	0	0	507	
9	0	0	0	0	503	
10	0	0	0	0	504	
11	0	0	0	0	505	
12	0	0	0	0	509	
13	0	0	0	0	509	
14	0	0	0	0	511	
15	0	0	0	0	510	
0	0	0	0	0	510	
1	0	0	0	0	508	
2	0	0	0	0	506	
3	0	0	0	0	507	
4	0	0	0	0	507	
5	0	0	0	0	508	
6	0	0	0	0	506	
7	0	0	0	0	510	
8	0	0	0	0	510	
9	0	0	0	0	509	
10	0	0	0	0	509	
11	0	0	0	0	514	
12	0	0	0	0	518	
13	0	0	0	0	520	
14	0	0	0	0	521	
15	0	0	0	0	503	
0	0	0	0	0	492	
1	0	0	0	0	496	
2	0	0	0	0	499	
3	0	0	0	0	499	
4	0	0	0	0	504	
5	0	0	0	0	508	
6	0	0	0	0	511	
7	0	0	0	0	511	
8	0	0	0	0	510	
9	0	0	0	0	511	
10	0	0	0	0	502	
11	0	0	0	0	498	
12	0	0	0	0	503	
13	0	0	0	0	509	
14	0	0	0	0	514	
15	0	0	0	0	514	
0	0	0	0	0	515	
1	0	0	0	0	514	
2	0	0	0	0	506	
3	0	0	0	0	504	
4	0	0	0	0	502	
5	0	0	0	0	508	
6	0	0	0	0	509	
7	0	0	0	0	510	
8	0	0	0	0	507	
9	0	0	0	0	508	
10	0	0	0	0	509	
11	0	0	0	0	508	
12	0	0	0	0	505	
13	0	0	0	0	509	
14	0	0	0	0	507	
15	0	0	0	0	508	
0	0	0	0	0	506	
1	0	0	0	0	508	
2	0	0	0	0	508	
3	0	0	0	0	508	
4	0	0	0	0	509	
5	0	0	0	0	509	
6	0	0	0	0	508	
7	0	0	0	0	507	
8	0	0	0	0	511	
9	0	0	0	0	513	
10	0	0	0	0	512	
11	0	0	0	0	511	
12	0	0	0	0	506	
13	0	0	0	0	510	
14	0	0	0	0	510	
15	0	0	0	0	507	
0	0	0	0	0	501	
1	0	0	0	0	504	
2	0	0	0	0	504	
3	0	0	0	0	504	
4	0	0	0	0	509	
5	0	0	0	0	511	
6	0	0	0	0	502	
7	0	0	0	0	502	
8	0	0	0	0	507	
9	0	0	0	0	508	
10	0	0	0	0	510	
11	0	0	0	0	508	
12	0	0	0	0	508	
13	0	0	0	0	509	
14	0	0	0	0	510	
15	0	0	0	0	507	
0	0	0	0	0	510	
1	0	0	0	0	508	
2	0	0	0	0	510	
3	0	0	0	0	509	
4	0	0	0	0	510	
5	0	0	0	0	510	
6	0	0	0	0	511	
7	0	0	0	0	507	
8	0	0	0	0	508	
9	0	0	0	0	513	
10	0	0	0	0	512	
11	0	0	0	0	510	
12	0	0	0	0	499	
13	0	0	0	0	498	
14	0	0	0	0	507	
15	0	0	0	0	507	
0	0	0	0	0	501	
1	0	0	0	0	504	
2	0	0	0	0	512	
3	0	0	0	0	513	
4	0	0	0	0	509	
5	0	0	0	0	507	
6	0	0	0	0	508	
7	0	0	0	0	509	
8	0	0	0	0	508	
9	0	0	0	0	504	
10	0	0	0	0	508	
11	0	0	0	0	510	
12	0	0	0	0	509	
13	0	0	0	0	510	
14	0	0	0	0	502	
15	0	0	0	0	505	
0	0	0	0	0	505	
1	0	0	0	0	506	
2	0	0	0	0	508	
3	0	0	0	0	510	
4	0	0	0	0	512	
5	0	0	0	0	511	
6	0	0	0	0	510	
7	0	0	0	0	510	
8	0	0	0	0	508	
9	0	0	0	0	507	
10	0	0	0	0	507	
11	0	0	0	0	507	
12	0	0	0	0	510	
13	0	0	0	0	510	
14	0	0	0	0	507	
15	0	0	0	0	503	
0	0	0	0	0	506	
1	0	0	0	0	515	
2	0	0	0	0	516	
3	0	0	0	0	516	
4	0	0	0	0	513	
5	0	0	0	0	508	
6	0	0	0	0	499	
7	0	0	0	0	500	
8	0	0	0	0	504	
9	0	0	0	0	502	
10	0	0	0	0	506	
11	0	0	0	0	504	
12	0	0	0	0	508	
13	0	0	0	0	510	
14	0	0	0	0	508	
15	0	0	0	0	509	
0	0	0	0	0	508	
1	0	0	0	0	508	
2	0	0	0	0	509	
3	0	0	0	0	507	
4	0	0	0	0	509	
5	0	0	0	0	509	
6	0	0	0	0	509	
7	0	0	0	0	507	
8	0	0	0	0	511	
9	0	0	0	0	509	
10	0	0	0	0	505	
11	0	0	0	0	507	
12	0	0	0	0	506	
13	0	0	0	0	506	
14	0	0	0	0	508	
15	0	0	0	0	511	
0	0	0	0	0	510	
1	0	0	0	0	511	
2	0	0	0	0	508	
3	0	0	0	0	510	
4	0	0	0	0	512	
5	0	0	0	0	512	
6	0	0	0	0	506	
7	0	0	0	0	504	
8	0	0	0	0	510	
9	0	0	0	0	506	
10	0	0	0	0	505	
11	0	0	0	0	506	
12	0	0	0	0	507	
13	0	0	0	0	506	
14	0	0	0	0	510	
15	0	0	0	0	511	
0	0	0	0	0	508	
1	0	0	0	0	506	
2	0	0	0	0	507	
3	0	0	0	0	507	
4	0	0	0	0	509	
5	0	0	0	0	510	
6	0	0	0	0	511	
7	0	0	0	0	511	
8	0	0	0	0	511	
9	0	0	0	0	500	
10	0	0	0	0	496	
11	0	0	0	0	503	
12	0	0	0	0	510	
13	0	0	0	0	512	
14	0	0	0	0	512	
15	0	0	0	0	511	
0	0	0	0	0	505	
1	0	0	0	0	496	
2	0	0	0	0	503	
3	0	0	0	0	509	
4	0	0	0	0	512	
5	0	0	0	0	512	
6	0	0	0	0	513	
7	0	0	0	0	516	
8	0	0	0	0	509	
9	0	0	0	0	507	
10	0	0	0	0	501	
11	0	0	0	0	496	
12	0	0	0	0	499	
13	0	0	0	0	505	
14	0	0	0	0	509	
15	0	0	0	0	512	
0	0	0	0	0	509	
1	0	0	0	0	508	
2	0	0	0	0	510	
3	0	0	0	0	510	
4	0	0	0	0	511	
5	0	0	0	0	511	
6	0	0	0	0	504	
7	0	0	0	0	508	
8	0	0	0	0	510	
9	0	0	0	0	509	
10	0	0	0	0	510	
11	0	0	0	0	508	
12	0	0	0	0	508	
13	0	0	0	0	505	
14	0	0	0	0	502	
15	0	0	0	0	504	
0	0	0	0	0	508	
1	0	0	0	0	510	
2	0	0	0	0	513	
3	0	0	0	0	512	
4	0	0	0	0	509	
5	0	0	0	0	509	
6	0	0	0	0	510	
7	0	0	0	0	509	
8	0	0	0	0	508	
9	0	0	0	0	506	
10	0	0	0	0	511	
11	0	0	0	0	513	
12	0	0	0	0	509	
13	0	0	0	0	499	
14	0	0	0	0	496	
15	0	0	0	0	501	
0	0	0	0	0	503	
1	0	0	0	0	506	
2	0	0	0	0	509	
3	0	0	0	0	510	
4	0	0	0	0	515	
5	0	0	0	0	513	
6	0	0	0	0	508	
7	0	0	0	0	509	
8	0	0	0	0	505	
9	0	0	0	0	504	
10	0	0	0	0	508	
11	0	0	0	0	506	
12	0	0	0	0	505	
13	0	0	0	0	509	
14	0	0	0	0	508	
15	0	0	0	0	512	
0	0	0	0	0	508	
1	0	0	0	0	505	
2	0	0	0	0	500	
3	0	0	0	0	503	
4	0	0	0	0	504	
5	0	0	0	0	507	
6	0	0	0	0	507	
7	0	0	0	0	506	
8	0	0	0	0	509	
9	0	0	0	0	509	
10	0	0	0	0	508	
11	0	0	0	0	508	
12	0	0	0	0	508	
13	0	0	0	0	507	
14	0	0	0	0	509	
15	0	0	0	0	508	
0	0	0	0	0	510	
1	0	0	0	0	509	
2	0	0	0	0	509	
3	0	0	0	0	511	
4	0	0	0	0	505	
5	0	0	0	0	504	
6	0	0	0	0	508	
7	0	0	0	0	509	
8	0	0	0	0	508	
9	0	0	0	0	509	
10	0	0	0	0	503	
11	0	0	0	0	502	
12	0	0	0	0	507	
13	0	0	0	0	508	
14	0	0	0	0	511	
15	0	0	0	0	511	
0	0	0	0	0	510	
1	0	0	0	0	509	
2	0	0	0	0	510	
3	0	0	0	0	508	
4	0	0	0	0	507	
5	0	0	0	0	504	
6	0	0	0	0	501	
7	0	0	0	0	504	
8	0	0	0	0	507	
9	0	0	0	0	511	
10	0	0	0	0	510	
11	0	0	0	0	504	
12	0	0	0	0	507	
13	0	0	0	0	513	
14	0	0	0	0	511	
15	0	0	0	0	507	
0	0	0	0	0	508	
1	0	0	0	0	507	
2	0	0	0	0	508	
3	0	0	0	0	509	
4	0	0	0	0	512	
5	0	0	0	0	510	
6	0	0	0	0	510	
7	0	0	0	0	509	
8	0	0	0	0	507	
9	0	0	0	0	507	
10	0	0	0	0	509	
11	0	0	0	0	513	
12	0	0	0	0	515	
13	0	0	0	0	503	
14	0	0	0	0	498	
15	0	0	0	0	501	
0	0	0	0	0	505	
1	0	0	0	0	507	
2	0	0	0	0	509	
3	0	0	0	0	513	
4	0	0	0	0	507	
5	0	0	0	0	508	
6	0	0	0	0	510	
7	0	0	0	0	512	
8	0	0	0	0	501	
9	0	0	0	0	503	
10	0	0	0	0	503	
11	0	0	0	0	510	
12	0	0	0	0	512	
13	0	0	0	0	510	
14	0	0	0	0	508	
15	0	0	0	0	511	
0	0	0	0	0	508	
1	0	0	0	0	505	
2	0	0	0	0	507	
3	0	0	0	0	510	
4	0	0	0	0	508	
5	0	0	0	0	502	
6	0	0	0	0	504	
7	0	0	0	0	502	
8	0	0	0	0	502	
9	0	0	0	0	509	
10	0	0	0	0	510	
11	0	0	0	0	511	
12	0	0	0	0	512	
13	0	0	0	0	514	
14	0	0	0	0	510	
15	0	0	0	0	505	
0	0	0	0	0	502	
1	0	0	0	0	504	
2	0	0	0	0	505	
3	0	0	0	0	505	
4	0	0	0	0	508	
5	0	0	0	0	507	
6	0	0	0	0	509	
7	0	0	0	0	507	
8	0	0	0	0	506	
9	0	0	0	0	505	
10	0	0	0	0	500	
11	0	0	0	0	492	
12	0	0	0	0	500	
13	0	0	0	0	505	
14	0	0	0	0	507	
15	0	0	0	0	510	
0	0	0	0	0	513	
1	0	0	0	0	512	
2	0	0	0	0	507	
3	0	0	0	0	502	
4	0	0	0	0	508	
5	0	0	0	0	509	
6	0	0	0	0	510	
7	0	0	0	0	508	
8	0	0	0	0	507	
9	0	0	0	0	512	
10	0	0	0	0	510	
11	0	0	0	0	502	
12	0	0	0	0	504	
13	0	0	0	0	508	
14	0	0	0	0	510	
15	0	0	0	0	511	
0	0	0	0	0	511	
1	0	0	0	0	514	
2	0	0	0	0	514	
3	0	0	0	0	509	
4	0	0	0	0	504	
5	0	0	0	0	504	
6	0	0	0	0	504	
7	0	0	0	0	506	
8	0	0	0	0	505	
9	0	0	0	0	509	
10	0	0	0	0	511	
11	0	0	0	0	512	
12	0	0	0	0	513	
13	0	0	0	0	513	
14	0	0	0	0	512	
15	0	0	0	0	513	
0	0	0	0	0	510	
1	0	0	0	0	510	
2	0	0	0	0	511	
3	0	0	0	0	511	
4	0	0	0	0	511	
5	0	0	0	0	511	
6	0	0	0	0	513	
7	0	0	0	0	514	
8	0	0	0	0	513	
9	0	0	0	0	512	
10	0	0	0	0	509	
11	0	0	0	0	504	
12	0	0	0	0	507	
13	0	0	0	0	505	
14	0	0	0	0	506	
15	0	0	0	0	507	
0	0	0	0	0	511	
1	0	0	0	0	509	
2	0	0	0	0	511	
3	0	0	0	0	512	
4	0	0	0	0	509	
5	0	0	0	0	508	
6	0	0	0	0	508	
7	0	0	0	0	509	
8	0	0	0	0	507	
9	0	0	0	0	508	
10	0	0	0	0	507	
11	0	0	0	0	509	
12	0	0	0	0	508	
13	0	0	0	0	508	
14	0	0	0	0	508	
15	0	0	0	0	515	
0	0	0	0	0	513	
1	0	0	0	0	515	
2	0	0	0	0	510	
3	0	0	0	0	505	
4	0	0	0	0	507	
5	0	0	0	0	512	
6	0	0	0	0	510	
7	0	0	0	0	496	
8	0	0	0	0	492	
9	0	0	0	0	494	
10	0	0	0	0	499	
11	0	0	0	0	509	
12	0	0	0	0	512	
13	0	0	0	0	510	
14	0	0	0	0	512	
15	0	0	0	0	512	
0	0	0	0	0	508	
1	0	0	0	0	508	
2	0	0	0	0	505	
3	0	0	0	0	508	
4	0	0	0	0	513	
5	0	0	0	0	514	
6	0	0	0	0	512	
7	0	0	0	0	510	
8	0	0	0	0	506	
9	0	0	0	0	504	
10	0	0	0	0	505	
11	0	0	0	0	511	
12	0	0	0	0	510	
13	0	0	0	0	508	
14	0	0	0	0	510	
15	0	0	0	0	508	
0	0	0	0	0	509	
1	0	0	0	0	509	
2	0	0	0	0	509	
3	0	0	0	0	509	
4	0	0	0	0	509	
5	0	0	0	0	505	
6	0	0	0	0	509	
7	0	0	0	0	508	
8	0	0	0	0	508	
9	0	0	0	0	509	
10	0	0	0	0	508	
11	0	0	0	0	509	
12	0	0	0	0	505	
13	0	0	0	0	504	
14	0	0	0	0	505	
15	0	0	0	0	506	
0	0	0	0	0	507	
1	0	0	0	0	511	
2	0	0	0	0	514	
3	0	0	0	0	515	
4	0	0	0	0	513	
5	0	0	0	0	508	
6	0	0	0	0	496	
7	0	0	0	0	496	
8	0	0	0	0	499	
9	0	0	0	0	504	
10	0	0	0	0	508	
11	0	0	0	0	510	
12	0	0	0	0	510	
13	0	0	0	0	508	
14	0	0	0	0	509	
15	0	0	0	0	512	
0	0	0	0	0	509	
1	0	0	0	0	507	
2	0	0	0	0	506	
3	0	0	0	0	510	
4	0	0	0	0	508	
5	0	0	0	0	508	
6	0	0	0	0	508	
7	0	0	0	0	509	
8	0	0	0	0	508	
9	0	0	0	0	509	
10	0	0	0	0	509	
11	0	0	0	0	508	
12	0	0	0	0	508	
13	0	0	0	0	508	
14	0	0	0	0	511	
15	0	0	0	0	507	
0	0	0	0	0	509	
1	0	0	0	0	507	
2	0	0	0	0	508	
3	0	0	0	0	510	
4	0	0	0	0	506	
5	0	0	0	0	508	
6	0	0	0	0	510	
7	0	0	0	0	508	
8	0	0	0	0	506	
9	0	0	0	0	507	
10	0	0	0	0	508	
11	0	0	0	0	508	
12	0	0	0	0	509	
13	0	0	0	0	512	
14	0	0	0	0	514	
15	0	0	0	0	518	
0	0	0	0	0	519	
1	0	0	0	0	511	
2	0	0	0	0	511	
3	0	0	0	0	495	
4	0	0	0	0	492	
5	0	0	0	0	500	
6	0	0	0	0	508	
7	0	0	0	0	504	
8	0	0	0	0	513	
9	0	0	0	0	512	
10	0	0	0	0	499	
11	0	0	0	0	501	
12	0	0	0	0	503	
13	0	0	0	0	503	
14	0	0	0	0	505	
15	0	0	0	0	511	
0	0	0	0	0	512	
1	0	0	0	0	515	
2	0	0	0	0	501	
3	0	0	0	0	497	
4	0	0	0	0	507	
5	0	0	0	0	512	
6	0	0	0	0	514	
7	0	0	0	0	514	
8	0	0	0	0	513	
9	0	0	0	0	510	
10	0	0	0	0	504	
11	0	0	0	0	509	
12	0	0	0	0	510	
13	0	0	0	0	508	
14	0	0	0	0	508	
15	0	0	0	0	507	
0	0	0	0	0	508	
1	0	0	0	0	508	
2	0	0	0	0	505	
3	0	0	0	0	506	
4	0	0	0	0	506	
5	0	0	0	0	506	
6	0	0	0	0	509	
7	0	0	0	0	510	
8	0	0	0	0	508	
9	0	0	0	0	507	
10	0	0	0	0	509	
11	0	0	0	0	509	
12	0	0	0	0	512	
13	0	0	0	0	512	
14	0	0	0	0	514	
15	0	0	0	0	511	
0	0	0	0	0	507	
1	0	0	0	0	502	
2	0	0	0	0	500	
3	0	0	0	0	499	
4	0	0	0	0	504	
5	0	0	0	0	505	
6	0	0	0	0	508	
7	0	0	0	0	509	
8	0	0	0	0	510	
9	0	0	0	0	508	
10	0	0	0	0	510	
11	0	0	0	0	509	
12	0	0	0	0	508	
13	0	0	0	0	507	
14	0	0	0	0	508	
15	0	0	0	0	509	
0	0	0	0	0	507	
1	0	0	0	0	508	
2	0	0	0	0	508	
3	0	0	0	0	510	
4	0	0	0	0	511	
5	0	0	0	0	509	
6	0	0	0	0	507	
7	0	0	0	0	507	
8	0	0	0	0	506	
9	0	0	0	0	509	
10	0	0	0	0	510	
11	0	0	0	0	510	
12	0	0	0	0	509	
13	0	0	0	0	510	
14	0	0	0	0	510	
15	0	0	0	0	503	
0	0	0	0	0	505	
1	0	0	0	0	503	
2	0	0	0	0	507	
3	0	0	0	0	508	
4	0	0	0	0	510	
5	0	0	0	0	509	
6	0	0	0	0	511	
7	0	0	0	0	507	
8	0	0	0	0	505	
9	0	0	0	0	507	
10	0	0	0	0	508	
11	0	0	0	0	508	
12	0	0	0	0	510	
13	0	0	0	0	512	
14	0	0	0	0	515	
15	0	0	0	0	513	
0	0	0	0	0	510	
1	0	0	0	0	505	
2	0	0	0	0	502	
3	0	0	0	0	503	
4	0	0	0	0	504	
5	0	0	0	0	505	
6	0	0	0	0	505	
7	0	0	0	0	511	
8	0	0	0	0	511	
9	0	0	0	0	509	
10	0	0	0	0	501	
11	0	0	0	0	505	
12	0	0	0	0	510	
13	0	0	0	0	512	
14	0	0	0	0	508	
15	0	0	0	0	508	
0	0	0	0	0	505	
1	0	0	0	0	504	
2	0	0	0	0	508	
3	0	0	0	0	511	
4	0	0	0	0	507	
5	0	0	0	0	508	
6	0	0	0	0	507	
7	0	0	0	0	514	
8	0	0	0	0	512	
9	0	0	0	0	509	
10	0	0	0	0	505	
11	0	0	0	0	507	
12	0	0	0	0	507	
13	0	0	0	0	504	
14	0	0	0	0	505	
15	0	0	0	0	509	
0	0	0	0	0	509	
1	0	0	0	0	510	
2	0	0	0	0	510	
3	0	0	0	0	508	
4	0	0	0	0	508	
5	0	0	0	0	512	
6	0	0	0	0	513	
7	0	0	0	0	511	
8	0	0	0	0	508	
9	0	0	0	0	504	
10	0	0	0	0	504	
11	0	0	0	0	501	
12	0	0	0	0	505	
13	0	0	0	0	508	
14	0	0	0	0	510	
15	0	0	0	0	509	
0	0	0	0	0	510	
1	0	0	0	0	514	
2	0	0	0	0	511	
3	0	0	0	0	505	
4	0	0	0	0	499	
5	0	0	0	0	511	
6	0	0	0	0	511	
7	0	0	0	0	511	
8	0	0	0	0	506	
9	0	0	0	0	499	
10	0	0	0	0	498	
11	0	0	0	0	500	
12	0	0	0	0	503	
13	0	0	0	0	509	
14	0	0	0	0	507	
15	0	0	0	0	509	
0	0	0	0	0	509	
1	0	0	0	0	507	
2	0	0	0	0	504	
3	0	0	0	0	505	
4	0	0	0	0	508	
5	0	0	0	0	510	
6	0	0	0	0	509	
7	0	0	0	0	508	
8	0	0	0	0	509	
9	0	0	0	0	509	
10	0	0	0	0	510	
11	0	0	0	0	511	
12	0	0	0	0	522	
13	0	0	0	0	524	
14	0	0	0	0	515	
15	0	0	0	0	511	
0	0	0	0	0	502	
1	0	0	0	0	501	
2	0	0	0	0	507	
3	0	0	0	0	509	
4	0	0	0	0	509	
5	0	0	0	0	509	
6	0	0	0	0	505	
7	0	0	0	0	505	
8	0	0	0	0	511	
9	0	0	0	0	509	
10	0	0	0	0	504	
11	0	0	0	0	504	
12	0	0	0	0	509	
13	0	0	0	0	503	
14	0	0	0	0	504	
15	0	0	0	0	507	
0	0	0	0	0	505	
1	0	0	0	0	506	
2	0	0	0	0	505	
3	0	0	0	0	505	
4	0	0	0	0	510	
5	0	0	0	0	510	
6	0	0	0	0	510	
7	0	0	0	0	511	
8	0	0	0	0	507	
9	0	0	0	0	500	
10	0	0	0	0	503	
11	0	0	0	0	510	
12	0	0	0	0	513	
13	0	0	0	0	514	
14	0	0	0	0	513	
15	0	0	0	0	512	
0	0	0	0	0	510	
1	0	0	0	0	507	
2	0	0	0	0	503	
3	0	0	0	0	507	
4	0	0	0	0	509	
5	0	0	0	0	506	
6	0	0	0	0	505	
7	0	0	0	0	506	
8	0	0	0	0	508	
9	0	0	0	0	513	
10	0	0	0	0	513	
11	0	0	0	0	509	
12	0	0	0	0	499	
13	0	0	0	0	503	
14	0	0	0	0	504	
15	0	0	0	0	506	
0	0	0	0	0	507	
1	0	0	0	0	508	
2	0	0	0	0	506	
3	0	0	0	0	510	
4	0	0	0	0	513	
5	0	0	0	0	514	
6	0	0	0	0	512	
7	0	0	0	0	512	
8	0	0	0	0	513	
9	0	0	0	0	508	
10	0	0	0	0	512	
11	0	0	0	0	512	
12	0	0	0	0	509	
13	0	0	0	0	506	
14	0	0	0	0	507	
15	0	0	0	0	503	
0	0	0	0	0	504	
1	0	0	0	0	505	
2	0	0	0	0	505	
3	0	0	0	0	504	
4	0	0	0	0	505	
5	0	0	0	0	505	
6	0	0	0	0	507	
7	0	0	0	0	509	
8	0	0	0	0	511	
9	0	0	0	0	510	
10	0	0	0	0	512	
11	0	0	0	0	508	
12	0	0	0	0	505	
13	0	0	0	0	502	
14	0	0	0	0	501	
15	0	0	0	0	508	
0	0	0	0	0	510	
1	0	0	0	0	510	
2	0	0	0	0	509	
3	0	0	0	0	508	
4	0	0	0	0	508	
5	0	0	0	0	511	
6	0	0	0	0	511	
7	0	0	0	0	511	
8	0	0	0	0	510	
9	0	0	0	0	511	
10	0	0	0	0	511	
11	0	0	0	0	509	
12	0	0	0	0	507	
13	0	0	0	0	506	
14	0	0	0	0	505	
15	0	0	0	0	506	
0	0	0	0	0	504	
1	0	0	0	0	504	
2	0	0	0	0	506	
3	0	0	0	0	508	
4	0	0	0	0	509	
5	0	0	0	0	507	
6	0	0	0	0	504	
7	0	0	0	0	506	
8	0	0	0	0	511	
9	0	0	0	0	511	
10	0	0	0	0	511	
11	0	0	0	0	511	
12	0	0	0	0	510	
13	0	0	0	0	510	
14	0	0	0	0	510	
15	0	0	0	0	504	
0	0	0	0	0	502	
1	0	0	0	0	500	
2	0	0	0	0	503	
3	0	0	0	0	506	
4	0	0	0	0	509	
5	0	0	0	0	511	
6	0	0	0	0	507	
7	0	0	0	0	508	
8	0	0	0	0	508	
9	0	0	0	0	509	
10	0	0	0	0	507	
11	0	0	0	0	508	
12	0	0	0	0	506	
13	0	0	0	0	507	
14	0	0	0	0	512	
15	0	0	0	0	514	
0	0	0	0	0	504	
1	0	0	0	0	507	
2	0	0	0	0	507	
3	0	0	0	0	513	
4	0	0	0	0	511	
5	0	0	0	0	511	
6	0	0	0	0	516	
7	0	0	0	0	512	
8	0	0	0	0	512	
9	0	0	0	0	510	
10	0	0	0	0	507	
11	0	0	0	0	499	
12	0	0	0	0	495	
13	0	0	0	0	497	
14	0	0	0	0	503	
15	0	0	0	0	504	
0	0	0	0	0	508	
1	0	0	0	0	508	
2	0	0	0	0	509	
3	0	0	0	0	513	
4	0	0	0	0	513	
5	0	0	0	0	511	
6	0	0	0	0	509	
7	0	0	0	0	508	
8	0	0	0	0	509	
9	0	0	0	0	508	
10	0	0	0	0	508	
11	0	0	0	0	508	
12	0	0	0	0	510	
13	0	0	0	0	507	
14	0	0	0	0	507	
15	0	0	0	0	506	
0	0	0	0	0	506	
1	0	0	0	0	506	
2	0	0	0	0	505	
3	0	0	0	0	508	
4	0	0	0	0	508	
5	0	0	0	0	507	
6	0	0	0	0	507	
7	0	0	0	0	509	
8	0	0	0	0	509	
9	0	0	0	0	505	
10	0	0	0	0	507	
11	0	0	0	0	508	
12	0	0	0	0	510	
13	0	0	0	0	508	
14	0	0	0	0	507	
15	0	0	0	0	508	
0	0	0	0	0	512	
1	0	0	0	0	512	
2	0	0	0	0	511	
3	0	0	0	0	510	
4	0	0	0	0	509	
5	0	0	0	0	510	
6	0	0	0	0	508	
7	0	0	0	0	506	
8	0	0	0	0	506	
9	0	0	0	0	503	
10	0	0	0	0	505	
11	0	0	0	0	507	
12	0	0	0	0	505	
13	0	0	0	0	506	
14	0	0	0	0	509	
15	0	0	0	0	508	
0	0	0	0	0	508	
1	0	0	0	0	508	
2	0	0	0	0	510	
3	0	0	0	0	510	
4	0	0	0	0	513	
5	0	0	0	0	505	
6	0	0	0	0	507	
7	0	0	0	0	510	
8	0	0	0	0	508	
9	0	0	0	0	506	
10	0	0	0	0	501	
11	0	0	0	0	503	
12	0	0	0	0	508	
13	0	0	0	0	506	
14	0	0	0	0	504	
15	0	0	0	0	506	
0	0	0	0	0	512	
1	0	0	0	0	512	
2	0	0	0	0	510	
3	0	0	0	0	510	
4	0	0	0	0	514	
5	0	0	0	0	515	
6	0	0	0	0	511	
7	0	0	0	0	510	
8	0	0	0	0	508	
9	0	0	0	0	507	
10	0	0	0	0	504	
11	0	0	0	0	503	
12	0	0	0	0	506	
13	0	0	0	0	504	
14	0	0	0	0	501	
15	0	0	0	0	502	
0	0	0	0	0	503	
1	0	0	0	0	505	
2	0	0	0	0	507	
3	0	0	0	0	503	
4	0	0	0	0	509	
5	0	0	0	0	510	
6	0	0	0	0	510	
7	0	0	0	0	512	
8	0	0	0	0	511	
9	0	0	0	0	513	
10	0	0	0	0	514	
11	0	0	0	0	510	
12	0	0	0	0	511	
13	0	0	0	0	512	
14	0	0	0	0	510	
15	0	0	0	0	509	
0	0	0	0	0	505	
1	0	0	0	0	506	
2	0	0	0	0	502	
3	0	0	0	0	504	
4	0	0	0	0	506	
5	0	0	0	0	511	
6	0	0	0	0	511	
7	0	0	0	0	510	
8	0	0	0	0	509	
9	0	0	0	0	507	
10	0	0	0	0	506	
11	0	0	0	0	511	
12	0	0	0	0	508	
13	0	0	0	0	505	
14	0	0	0	0	511	
15	0	0	0	0	505	
0	0	0	0	0	503	
1	0	0	0	0	504	
2	0	0	0	0	504	
3	0	0	0	0	501	
4	0	0	0	0	504	
5	0	0	0	0	505	
6	0	0	0	0	508	
7	0	0	0	0	510	
8	0	0	0	0	510	
9	0	0	0	0	508	
10	0	0	0	0	511	
11	0	0	0	0	512	
12	0	0	0	0	516	
13	0	0	0	0	513	
14	0	0	0	0	505	
15	0	0	0	0	504	
0	0	0	0	0	503	
1	0	0	0	0	507	
2	0	0	0	0	510	
3	0	0	0	0	508	
4	0	0	0	0	508	
5	0	0	0	0	510	
6	0	0	0	0	513	
7	0	0	0	0	512	
8	0	0	0	0	507	
9	0	0	0	0	502	
10	0	0	0	0	505	
11	0	0	0	0	508	
12	0	0	0	0	509	
13	0	0	0	0	511	
14	0	0	0	0	511	
15	0	0	0	0	514	
0	0	0	0	0	511	
1	0	0	0	0	512	
2	0	0	0	0	510	
3	0	0	0	0	502	
4	0	0	0	0	499	
5	0	0	0	0	496	
6	0	0	0	0	499	
7	0	0	0	0	504	
8	0	0	0	0	505	
9	0	0	0	0	510	
10	0	0	0	0	512	
11	0	0	0	0	512	
12	0	0	0	0	513	
13	0	0	0	0	515	
14	0	0	0	0	514	
15	0	0	0	0	518	
0	0	0	0	0	514	
1	0	0	0	0	507	
2	0	0	0	0	508	
3	0	0	0	0	506	
4	0	0	0	0	505	
5	0	0	0	0	504	
6	0	0	0	0	505	
7	0	0	0	0	508	
8	0	0	0	0	509	
9	0	0	0	0	508	
10	0	0	0	0	505	
11	0	0	0	0	507	
12	0	0	0	0	509	
13	0	0	0	0	504	
14	0	0	0	0	503	
15	0	0	0	0	504	
0	0	0	0	0	503	
1	0	0	0	0	508	
2	0	0	0	0	508	
3	0	0	0	0	510	
4	0	0	0	0	506	
5	0	0	0	0	510	
6	0	0	0	0	511	
7	0	0	0	0	510	
8	0	0	0	0	511	
9	0	0	0	0	516	
10	0	0	0	0	511	
11	0	0	0	0	509	
12	0	0	0	0	508	
13	0	0	0	0	512	
14	0	0	0	0	515	
15	0	0	0	0	520	
0	0	0	0	0	519	
1	0	0	0	0	508	
2	0	0	0	0	494	
3	0	0	0	0	491	
4	0	0	0	0	488	
5	0	0	0	0	495	
6	0	0	0	0	496	
7	0	0	0	0	499	
8	0	0	0	0	507	
9	0	0	0	0	511	
10	0	0	0	0	512	
11	0	0	0	0	511	
12	0	0	0	0	508	
13	0	0	0	0	506	
14	0	0	0	0	515	
15	0	0	0	0	518	
0	0	0	0	0	513	
1	0	0	0	0	514	
2	0	0	0	0	511	
3	0	0	0	0	505	
4	0	0	0	0	498	
5	0	0	0	0	502	
6	0	0	0	0	509	
7	0	0	0	0	512	
8	0	0	0	0	511	
9	0	0	0	0	506	
10	0	0	0	0	507	
11	0	0	0	0	509	
12	0	0	0	0	509	
13	0	0	0	0	511	
14	0	0	0	0	515	
15	0	0	0	0	512	
0	0	0	0	0	502	
1	0	0	0	0	502	
2	0	0	0	0	500	
3	0	0	0	0	506	
4	0	0	0	0	507	
5	0	0	0	0	508	
6	0	0	0	0	515	
7	0	0	0	0	514	
8	0	0	0	0	513	
9	0	0	0	0	510	
10	0	0	0	0	505	
11	0	0	0	0	500	
12	0	0	0	0	503	
13	0	0	0	0	501	
14	0	0	0	0	504	
15	0	0	0	0	505	
0	0	0	0	0	504	
1	0	0	0	0	506	
2	0	0	0	0	508	
3	0	0	0	0	511	
4	0	0	0	0	514	
5	0	0	0	0	512	
6	0	0	0	0	512	
7	0	0	0	0	512	
8	0	0	0	0	507	
9	0	0	0	0	508	
10	0	0	0	0	508	
11	0	0	0	0	511	
12	0	0	0	0	508	
13	0	0	0	0	504	
14	0	0	0	0	504	
15	0	0	0	0	503	
0	0	0	0	0	504	
1	0	0	0	0	508	
2	0	0	0	0	507	
3	0	0	0	0	507	
4	0	0	0	0	509	
5	0	0	0	0	511	
6	0	0	0	0	510	
7	0	0	0	0	511	
8	0	0	0	0	510	
9	0	0	0	0	515	
10	0	0	0	0	517	
11	0	0	0	0	511	
12	0	0	0	0	508	
13	0	0	0	0	505	
14	0	0	0	0	507	
15	0	0	0	0	507	
0	0	0	0	0	506	
1	0	0	0	0	501	
2	0	0	0	0	503	
3	0	0	0	0	506	
4	0	0	0	0	499	
5	0	0	0	0	499	
6	0	0	0	0	506	
7	0	0	0	0	507	
8	0	0	0	0	509	
9	0	0	0	0	511	
10	0	0	0	0	510	
11	0	0	0	0	511	
12	0	0	0	0	509	
13	0	0	0	0	504	
14	0	0	0	0	506	
15	0	0	0	0	504	
0	0	0	0	0	504	
1	0	0	0	0	506	
2	0	0	0	0	510	
3	0	0	0	0	511	
4	0	0	0	0	508	
5	0	0	0	0	511	
6	0	0	0	0	517	
7	0	0	0	0	516	
8	0	0	0	0	511	
9	0	0	0	0	509	
10	0	0	0	0	513	
11	0	0	0	0	509	
12	0	0	0	0	506	
13	0	0	0	0	504	
14	0	0	0	0	503	
15	0	0	0	0	502	
0	0	0	0	0	505	
1	0	0	0	0	508	
2	0	0	0	0	505	
3	0	0	0	0	505	
4	0	0	0	0	506	
5	0	0	0	0	510	
6	0	0	0	0	508	
7	0	0	0	0	508	
8	0	0	0	0	508	
9	0	0	0	0	506	
10	0	0	0	0	508	
11	0	0	0	0	509	
12	0	0	0	0	510	
13	0	0	0	0	506	
14	0	0	0	0	502	
15	0	0	0	0	503	
0	0	0	0	0	506	
1	0	0	0	0	506	
2	0	0	0	0	508	
3	0	0	0	0	507	
4	0	0	0	0	512	
5	0	0	0	0	515	
6	0	0	0	0	515	
7	0	0	0	0	514	
8	0	0	0	0	509	
9	0	0	0	0	506	
10	0	0	0	0	505	
11	0	0	0	0	508	
12	0	0	0	0	509	
13	0	0	0	0	512	
14	0	0	0	0	511	
15	0	0	0	0	508	
0	0	0	0	0	504	
1	0	0	0	0	500	
2	0	0	0	0	499	
3	0	0	0	0	500	
4	0	0	0	0	507	
5	0	0	0	0	506	
6	0	0	0	0	504	
7	0	0	0	0	508	
8	0	0	0	0	511	
9	0	0	0	0	523	
10	0	0	0	0	521	
11	0	0	0	0	510	
12	0	0	0	0	512	
13	0	0	0	0	509	
14	0	0	0	0	494	
15	0	0	0	0	492	
0	0	0	0	0	498	
1	0	0	0	0	504	
2	0	0	0	0	511	
3	0	0	0	0	507	
4	0	0	0	0	508	
5	0	0	0	0	508	
6	0	0	0	0	507	
7	0	0	0	0	509	
8	0	0	0	0	515	
9	0	0	0	0	521	
10	0	0	0	0	520	
11	0	0	0	0	518	
12	0	0	0	0	510	
13	0	0	0	0	501	
14	0	0	0	0	502	
15	0	0	0	0	505	
0	0	0	0	0	505	
1	0	0	0	0	498	
2	0	0	0	0	499	
3	0	0	0	0	500	
4	0	0	0	0	505	
5	0	0	0	0	506	
6	0	0	0	0	508	
7	0	0	0	0	508	
8	0	0	0	0	510	
9	0	0	0	0	514	
10	0	0	0	0	508	
11	0	0	0	0	508	
12	0	0	0	0	512	
13	0	0	0	0	513	
14	0	0	0	0	509	
15	0	0	0	0	505	
0	0	0	0	0	505	
1	0	0	0	0	504	
2	0	0	0	0	509	
3	0	0	0	0	510	
4	0	0	0	0	509	
5	0	0	0	0	509	
6	0	0	0	0	508	
7	0	0	0	0	508	
8	0	0	0	0	508	
9	0	0	0	0	510	
10	0	0	0	0	509	
11	0	0	0	0	508	
12	0	0	0	0	505	
13	0	0	0	0	504	
14	0	0	0	0	507	
15	0	0	0	0	510	
0	0	0	0	0	511	
1	0	0	0	0	514	
2	0	0	0	0	512	
3	0	0	0	0	509	
4	0	0	0	0	506	
5	0	0	0	0	505	
6	0	0	0	0	507	
7	0	0	0	0	502	
8	0	0	0	0	501	
9	0	0	0	0	501	
10	0	0	0	0	501	
11	0	0	0	0	504	
12	0	0	0	0	509	
13	0	0	0	0	509	
14	0	0	0	0	507	
15	0	0	0	0	512	
0	0	0	0	0	515	
1	0	0	0	0	518	
2	0	0	0	0	516	
3	0	0	0	0	511	
4	0	0	0	0	509	
5	0	0	0	0	504	
6	0	0	0	0	505	
7	0	0	0	0	505	
8	0	0	0	0	505	
9	0	0	0	0	502	
10	0	0	0	0	500	
11	0	0	0	0	504	
12	0	0	0	0	503	
13	0	0	0	0	508	
14	0	0	0	0	509	
15	0	0	0	0	508	
0	0	0	0	0	512	
1	0	0	0	0	508	
2	0	0	0	0	510	
3	0	0	0	0	518	
4	0	0	0	0	519	
5	0	0	0	0	508	
6	0	0	0	0	503	
7	0	0	0	0	503	
8	0	0	0	0	505	
9	0	0	0	0	507	
10	0	0	0	0	503	
11	0	0	0	0	505	
12	0	0	0	0	505	
13	0	0	0	0	509	
14	0	0	0	0	504	
15	0	0	0	0	505	
0	0	0	0	0	506	
1	0	0	0	0	508	
2	0	0	0	0	513	
3	0	0	0	0	512	
4	0	0	0	0	508	
5	0	0	0	0	511	
6	0	0	0	0	512	
7	0	0	0	0	508	
8	0	0	0	0	502	
9	0	0	0	0	498	
10	0	0	0	0	497	
11	0	0	0	0	497	
12	0	0	0	0	497	
13	0	0	0	0	497	
14	0	0	0	0	499	
15	0	0	0	0	498	
0	0	0	0	0	494	
1	0	0	0	0	493	
2	0	0	0	0	494	
3	0	0	0	0	498	
4	0	0	0	0	496	
5	0	0	0	0	493	
6	0	0	0	0	491	
7	0	0	0	0	501	
8	0	0	0	0	502	
9	0	0	0	0	501	
10	0	0	0	0	505	
11	0	0	0	0	509	
12	0	0	0	0	515	
13	0	0	0	0	516	
14	0	0	0	0	519	
15	0	0	0	0	514	
0	0	0	0	0	508	
1	0	0	0	0	507	
2	0	0	0	0	503	
3	0	0	0	0	509	
4	0	0	0	0	512	
5	0	0	0	0	508	
6	0	0	0	0	516	
7	0	0	0	0	519	
8	0	0	0	0	509	
9	0	0	0	0	508	
10	0	0	0	0	510	
11	0	0	0	0	514	
12	0	0	0	0	515	
13	0	0	0	0	513	
14	0	0	0	0	515	
15	0	0	0	0	514	
0	0	0	0	0	515	
1	0	0	0	0	517	
2	0	0	0	0	511	
3	0	0	0	0	503	
4	0	0	0	0	504	
5	0	0	0	0	508	
6	0	0	0	0	514	
7	0	0	0	0	515	
8	0	0	0	0	508	
9	0	0	0	0	511	
10	0	0	0	0	513	
11	0	0	0	0	520	
12	0	0	0	0	519	
13	0	0	0	0	518	
14	0	0	0	0	512	
15	0	0	0	0	501	
0	0	0	0	0	501	
1	0	0	0	0	508	
2	0	0	0	0	509	
3	0	0	0	0	512	
4	0	0	0	0	514	
5	0	0	0	0	507	
6	0	0	0	0	508	
7	0	0	0	0	504	
8	0	0	0	0	507	
9	0	0	0	0	507	
10	0	0	0	0	504	
11	0	0	0	0	505	
12	0	0	0	0	504	
13	0	0	0	0	505	
14	0	0	0	0	505	
15	0	0	0	0	510	
0	0	0	0	0	513	
1	0	0	0	0	514	
2	0	0	0	0	518	
3	0	0	0	0	513	
4	0	0	0	0	512	
5	0	0	0	0	515	
6	0	0	0	0	511	
7	0	0	0	0	507	
8	0	0	0	0	502	
9	0	0	0	0	511	
10	0	0	0	0	509	
11	0	0	0	0	504	
12	0	0	0	0	505	
13	0	0	0	0	505	
14	0	0	0	0	511	
15	0	0	0	0	516	
0	0	0	0	0	511	
1	0	0	0	0	507	
2	0	0	0	0	505	
3	0	0	0	0	507	
4	0	0	0	0	505	
5	0	0	0	0	506	
6	0	0	0	0	504	
7	0	0	0	0	504	
8	0	0	0	0	500	
9	0	0	0	0	506	
10	0	0	0	0	508	
11	0	0	0	0	507	
12	0	0	0	0	509	
13	0	0	0	0	509	
14	0	0	0	0	509	
15	0	0	0	0	516	
0	0	0	0	0	517	
1	0	0	0	0	519	
2	0	0	0	0	513	
3	0	0	0	0	509	
4	0	0	0	0	504	
5	0	0	0	0	505	
6	0	0	0	0	509	
7	0	0	0	0	507	
8	0	0	0	0	509	
9	0	0	0	0	510	
10	0	0	0	0	508	
11	0	0	0	0	513	
12	0	0	0	0	518	
13	0	0	0	0	513	
14	0	0	0	0	501	
15	0	0	0	0	497	
0	0	0	0	0	500	
1	0	0	0	0	502	
2	0	0	0	0	501	
3	0	0	0	0	506	
4	0	0	0	0	509	
5	0	0	0	0	511	
6	0	0	0	0	510	
7	0	0	0	0	504	
8	0	0	0	0	507	
9	0	0	0	0	505	
10	0	0	0	0	504	
11	0	0	0	0	507	
12	0	0	0	0	508	
13	0	0	0	0	506	
14	0	0	0	0	512	
15	0	0	0	0	518	
0	0	0	0	0	517	
1	0	0	0	0	512	
2	0	0	0	0	507	
3	0	0	0	0	512	
4	0	0	0	0	508	
5	0	0	0	0	503	
6	0	0	0	0	506	
7	0	0	0	0	508	
8	0	0	0	0	506	
9	0	0	0	0	504	
10	0	0	0	0	507	
11	0	0	0	0	505	
12	0	0	0	0	509	
13	0	0	0	0	506	
14	0	0	0	0	508	
15	0	0	0	0	512	
0	0	0	0	0	516	
1	0	0	0	0	513	
2	0	0	0	0	507	
3	0	0	0	0	504	
4	0	0	0	0	500	
5	0	0	0	0	507	
6	0	0	0	0	508	
7	0	0	0	0	506	
8	0	0	0	0	508	
9	0	0	0	0	511	
10	0	0	0	0	520	
11	0	0	0	0	525	
12	0	0	0	0	518	
13	0	0	0	0	511	
14	0	0	0	0	508	
15	0	0	0	0	508	
0	0	0	0	0	502	
1	0	0	0	0	499	
2	0	0	0	0	504	
3	0	0	0	0	505	
4	0	0	0	0	502	
5	0	0	0	0	499	
6	0	0	0	0	507	
7	0	0	0	0	516	
8	0	0	0	0	519	
9	0	0	0	0	512	
10	0	0	0	0	510	
11	0	0	0	0	510	
12	0	0	0	0	502	
13	0	0	0	0	504	
14	0	0	0	0	512	
15	0	0	0	0	509	
0	0	0	0	0	511	
1	0	0	0	0	514	
2	0	0	0	0	513	
3	0	0	0	0	504	
4	0	0	0	0	508	
5	0	0	0	0	506	
6	0	0	0	0	507	
7	0	0	0	0	502	
8	0	0	0	0	501	
9	0	0	0	0	505	
10	0	0	0	0	504	
11	0	0	0	0	504	
12	0	0	0	0	508	
13	0	0	0	0	503	
14	0	0	0	0	503	
15	0	0	0	0	506	
0	0	0	0	0	509	
1	0	0	0	0	508	
2	0	0	0	0	510	
3	0	0	0	0	509	
4	0	0	0	0	512	
5	0	0	0	0	504	
6	0	0	0	0	507	
7	0	0	0	0	507	
8	0	0	0	0	508	
9	0	0	0	0	511	
10	0	0	0	0	510	
11	0	0	0	0	511	
12	0	0	0	0	513	
13	0	0	0	0	511	
14	0	0	0	0	508	
15	0	0	0	0	502	
0	0	0	0	0	504	
1	0	0	0	0	512	
2	0	0	0	0	513	
3	0	0	0	0	509	
4	0	0	0	0	504	
5	0	0	0	0	504	
6	0	0	0	0	504	
7	0	0	0	0	503	
8	0	0	0	0	506	
9	0	0	0	0	507	
10	0	0	0	0	512	
11	0	0	0	0	511	
12	0	0	0	0	515	
13	0	0	0	0	519	
14	0	0	0	0	510	
15	0	0	0	0	502	
0	0	0	0	0	504	
1	0	0	0	0	507	
2	0	0	0	0	506	
3	0	0	0	0	505	
4	0	0	0	0	502	
5	0	0	0	0	508	
6	0	0	0	0	509	
7	0	0	0	0	508	
8	0	0	0	0	510	
9	0	0	0	0	517	
10	0	0	0	0	514	
11	0	0	0	0	511	
12	0	0	0	0	512	
13	0	0	0	0	509	
14	0	0	0	0	505	
15	0	0	0	0	504	
0	0	0	0	0	503	
1	0	0	0	0	505	
2	0	0	0	0	505	
3	0	0	0	0	504	
4	0	0	0	0	506	
5	0	0	0	0	507	
6	0	0	0	0	507	
7	0	0	0	0	505	
8	0	0	0	0	507	
9	0	0	0	0	505	
10	0	0	0	0	505	
11	0	0	0	0	510	
12	0	0	0	0	509	
13	0	0	0	0	509	
14	0	0	0	0	510	
15	0	0	0	0	511	
0	0	0	0	0	509	
1	0	0	0	0	508	
2	0	0	0	0	509	
3	0	0	0	0	509	
4	0	0	0	0	506	
5	0	0	0	0	504	
6	0	0	0	0	499	
7	0	0	0	0	502	
8	0	0	0	0	509	
9	0	0	0	0	513	
10	0	0	0	0	511	
11	0	0	0	0	510	
12	0	0	0	0	504	
13	0	0	0	0	502	
14	0	0	0	0	502	
15	0	0	0	0	510	
0	0	0	0	0	512	
1	0	0	0	0	511	
2	0	0	0	0	507	
3	0	0	0	0	505	
4	0	0	0	0	509	
5	0	0	0	0	509	
6	0	0	0	0	508	
7	0	0	0	0	505	
8	0	0	0	0	507	
9	0	0	0	0	506	
10	0	0	0	0	503	
11	0	0	0	0	505	
12	0	0	0	0	508	
13	0	0	0	0	512	
14	0	0	0	0	510	
15	0	0	0	0	507	
0	0	0	0	0	507	
1	0	0	0	0	508	
2	0	0	0	0	509	
3	0	0	0	0	513	
4	0	0	0	0	510	
5	0	0	0	0	511	
6	0	0	0	0	514	
7	0	0	0	0	509	
8	0	0	0	0	501	
9	0	0	0	0	499	
10	0	0	0	0	510	
11	0	0	0	0	511	
12	0	0	0	0	509	
13	0	0	0	0	505	
14	0	0	0	0	504	
15	0	0	0	0	507	
0	0	0	0	0	509	
1	0	0	0	0	518	
2	0	0	0	0	521	
3	0	0	0	0	520	
4	0	0	0	0	511	
5	0	0	0	0	505	
6	0	0	0	0	499	
7	0	0	0	0	496	
8	0	0	0	0	497	
9	0	0	0	0	503	
10	0	0	0	0	503	
11	0	0	0	0	506	
12	0	0	0	0	510	
13	0	0	0	0	510	
14	0	0	0	0	512	
15	0	0	0	0	515	
0	0	0	0	0	509	
1	0	0	0	0	511	
2	0	0	0	0	515	
3	0	0	0	0	507	
4	0	0	0	0	503	
5	0	0	0	0	506	
6	0	0	0	0	511	
7	0	0	0	0	507	
8	0	0	0	0	506	
9	0	0	0	0	500	
10	0	0	0	0	496	
11	0	0	0	0	498	
12	0	0	0	0	505	
13	0	0	0	0	513	
14	0	0	0	0	509	
15	0	0	0	0	511	
0	0	0	0	0	508	
1	0	0	0	0	506	
2	0	0	0	0	509	
3	0	0	0	0	511	
4	0	0	0	0	508	
5	0	0	0	0	511	
6	0	0	0	0	509	
7	0	0	0	0	509	
8	0	0	0	0	512	
9	0	0	0	0	511	
10	0	0	0	0	510	
11	0	0	0	0	512	
12	0	0	0	0	510	
13	0	0	0	0	512	
14	0	0	0	0	511	
15	0	0	0	0	511	
0	0	0	0	0	508	
1	0	0	0	0	504	
2	0	0	0	0	505	
3	0	0	0	0	505	
4	0	0	0	0	504	
5	0	0	0	0	504	
6	0	0	0	0	510	
7	0	0	0	0	506	
8	0	0	0	0	510	
9	0	0	0	0	512	
10	0	0	0	0	509	
11	0	0	0	0	510	
12	0	0	0	0	507	
13	0	0	0	0	505	
14	0	0	0	0	509	
15	0	0	0	0	509	
0	0	0	0	0	499	
1	0	0	0	0	498	
2	0	0	0	0	504	
3	0	0	0	0	506	
4	0	0	0	0	510	
5	0	0	0	0	511	
6	0	0	0	0	513	
7	0	0	0	0	513	
8	0	0	0	0	512	
9	0	0	0	0	510	
10	0	0	0	0	512	
11	0	0	0	0	508	
12	0	0	0	0	509	
13	0	0	0	0	508	
14	0	0	0	0	507	
15	0	0	0	0	502	
0	0	0	0	0	502	
1	0	0	0	0	502	
2	0	0	0	0	502	
3	0	0	0	0	504	
4	0	0	0	0	505	
5	0	0	0	0	510	
6	0	0	0	0	510	
7	0	0	0	0	511	
8	0	0	0	0	511	
9	0	0	0	0	510	
10	0	0	0	0	508	
11	0	0	0	0	506	
12	0	0	0	0	511	
13	0	0	0	0	513	
14	0	0	0	0	511	
15	0	0	0	0	509	
0	0	0	0	0	508	
1	0	0	0	0	512	
2	0	0	0	0	510	
3	0	0	0	0	510	
4	0	0	0	0	509	
5	0	0	0	0	508	
6	0	0	0	0	508	
7	0	0	0	0	504	
8	0	0	0	0	504	
9	0	0	0	0	504	
10	0	0	0	0	507	
11	0	0	0	0	507	
12	0	0	0	0	509	
13	0	0	0	0	508	
14	0	0	0	0	511	
15	0	0	0	0	510	
0	0	0	0	0	508	
1	0	0	0	0	509	
2	0	0	0	0	505	
3	0	0	0	0	505	
4	0	0	0	0	508	
5	0	0	0	0	510	
6	0	0	0	0	506	
7	0	0	0	0	505	
8	0	0	0	0	511	
9	0	0	0	0	510	
10	0	0	0	0	511	
11	0	0	0	0	507	
12	0	0	0	0	509	
13	0	0	0	0	511	
14	0	0	0	0	513	
15	0	0	0	0	513	
0	0	0	0	0	508	
1	0	0	0	0	508	
2	0	0	0	0	508	
3	0	0	0	0	511	
4	0	0	0	0	512	
5	0	0	0	0	512	
6	0	0	0	0	509	
7	0	0	0	0	505	
8	0	0	0	0	508	
9	0	0	0	0	502	
10	0	0	0	0	501	
11	0	0	0	0	502	
12	0	0	0	0	506	
13	0	0	0	0	502	
14	0	0	0	0	502	
15	0	0	0	0	505	
0	0	0	0	0	506	
1	0	0	0	0	508	
2	0	0	0	0	510	
3	0	0	0	0	508	
4	0	0	0	0	511	
5	0	0	0	0	511	
6	0	0	0	0	510	
7	0	0	0	0	512	
8	0	0	0	0	508	
9	0	0	0	0	508	
10	0	0	0	0	509	
11	0	0	0	0	507	
12	0	0	0	0	505	
13	0	0	0	0	510	
14	0	0	0	0	509	
15	0	0	0	0	510	
0	0	0	0	0	508	
1	0	0	0	0	508	
2	0	0	0	0	506	
3	0	0	0	0	507	
4	0	0	0	0	508	
5	0	0	0	0	504	
6	0	0	0	0	506	
7	0	0	0	0	508	
8	0	0	0	0	507	
9	0	0	0	0	508	
10	0	0	0	0	509	
11	0	0	0	0	507	
12	0	0	0	0	508	
13	0	0	0	0	511	
14	0	0	0	0	509	
15	0	0	0	0	510	
0	0	0	0	0	507	
1	0	0	0	0	509	
2	0	0	0	0	508	
3	0	0	0	0	510	
4	0	0	0	0	511	
5	0	0	0	0	510	
6	0	0	0	0	508	
7	0	0	0	0	510	
8	0	0	0	0	509	
9	0	0	0	0	505	
10	0	0	0	0	500	
11	0	0	0	0	503	
12	0	0	0	0	502	
13	0	0	0	0	505	
14	0	0	0	0	508	
15	0	0	0	0	508	
0	0	0	0	0	506	
1	0	0	0	0	508	
2	0	0	0	0	509	
3	0	0	0	0	510	
4	0	0	0	0	511	
5	0	0	0	0	512	
6	0	0	0	0	514	
7	0	0	0	0	512	
8	0	0	0	0	507	
9	0	0	0	0	506	
10	0	0	0	0	504	
11	0	0	0	0	509	
12	0	0	0	0	507	
13	0	0	0	0	504	
14	0	0	0	0	509	
15	0	0	0	0	516	
0	0	0	0	0	516	
1	0	0	0	0	513	
2	0	0	0	0	515	
3	0	0	0	0	508	
4	0	0	0	0	499	
5	0	0	0	0	503	
6	0	0	0	0	500	
7	0	0	0	0	489	
8	0	0	0	0	493	
9	0	0	0	0	500	
10	0	0	0	0	506	
11	0	0	0	0	511	
12	0	0	0	0	511	
13	0	0	0	0	511	
14	0	0	0	0	508	
15	0	0	0	0	507	
0	0	0	0	0	511	
1	0	0	0	0	512	
2	0	0	0	0	511	
3	0	0	0	0	505	
4	0	0	0	0	506	
5	0	0	0	0	506	
6	0	0	0	0	509	
7	0	0	0	0	510	
8	0	0	0	0	510	
9	0	0	0	0	508	
10	0	0	0	0	509	
11	0	0	0	0	510	
12	0	0	0	0	510	
13	0	0	0	0	511	
14	0	0	0	0	515	
15	0	0	0	0	515	
0	0	0	0	0	511	
1	0	0	0	0	505	
2	0	0	0	0	500	
3	0	0	0	0	501	
4	0	0	0	0	503	
5	0	0	0	0	506	
6	0	0	0	0	506	
7	0	0	0	0	507	
8	0	0	0	0	505	
9	0	0	0	0	505	
10	0	0	0	0	507	
11	0	0	0	0	503	
12	0	0	0	0	501	
13	0	0	0	0	505	
14	0	0	0	0	508	
15	0	0	0	0	509	
0	0	0	0	0	510	
1	0	0	0	0	511	
2	0	0	0	0	512	
3	0	0	0	0	511	
4	0	0	0	0	509	
5	0	0	0	0	506	
6	0	0	0	0	507	
7	0	0	0	0	512	
8	0	0	0	0	511	
9	0	0	0	0	509	
10	0	0	0	0	506	
11	0	0	0	0	505	
12	0	0	0	0	506	
13	0	0	0	0	507	
14	0	0	0	0	506	
15	0	0	0	0	505	
0	0	0	0	0	505	
1	0	0	0	0	506	
2	0	0	0	0	506	
3	0	0	0	0	508	
4	0	0	0	0	508	
5	0	0	0	0	508	
6	0	0	0	0	510	
7	0	0	0	0	509	
8	0	0	0	0	510	
9	0	0	0	0	508	
10	0	0	0	0	509	
11	0	0	0	0	511	
12	0	0	0	0	508	
13	0	0	0	0	511	
14	0	0	0	0	508	
15	0	0	0	0	510	
0	0	0	0	0	509	
1	0	0	0	0	510	
2	0	0	0	0	509	
3	0	0	0	0	509	
4	0	0	0	0	510	
5	0	0	0	0	512	
6	0	0	0	0	510	
7	0	0	0	0	508	
8	0	0	0	0	509	
9	0	0	0	0	507	
10	0	0	0	0	505	
11	0	0	0	0	504	
12	0	0	0	0	505	
13	0	0	0	0	507	
14	0	0	0	0	506	
15	0	0	0	0	507	
0	0	0	0	0	507	
1	0	0	0	0	507	
2	0	0	0	0	506	
3	0	0	0	0	505	
4	0	0	0	0	506	
5	0	0	0	0	508	
6	0	0	0	0	508	
7	0	0	0	0	506	
8	0	0	0	0	508	
9	0	0	0	0	507	
10	0	0	0	0	507	
11	0	0	0	0	509	
12	0	0	0	0	508	
13	0	0	0	0	508	
14	0	0	0	0	507	
15	0	0	0	0	507	
0	0	0	0	0	506	
1	0	0	0	0	508	
2	0	0	0	0	511	
3	0	0	0	0	509	
4	0	0	0	0	507	
5	0	0	0	0	509	
6	0	0	0	0	507	
7	0	0	0	0	507	
8	0	0	0	0	504	
9	0	0	0	0	504	
10	0	0	0	0	506	
11	0	0	0	0	508	
12	0	0	0	0	512	
13	0	0	0	0	512	
14	0	0	0	0	507	
15	0	0	0	0	511	
0	0	0	0	0	516	
1	0	0	0	0	515	
2	0	0	0	0	513	
3	0	0	0	0	515	
4	0	0	0	0	515	
5	0	0	0	0	507	
6	0	0	0	0	504	
7	0	0	0	0	503	
8	0	0	0	0	501	
9	0	0	0	0	504	
10	0	0	0	0	506	
11	0	0	0	0	507	
12	0	0	0	0	506	
13	0	0	0	0	507	
14	0	0	0	0	508	
15	0	0	0	0	507	
0	0	0	0	0	509	
1	0	0	0	0	509	
2	0	0	0	0	506	
3	0	0	0	0	509	
4	0	0	0	0	510	
5	0	0	0	0	510	
6	0	0	0	0	508	
7	0	0	0	0	508	
8	0	0	0	0	504	
9	0	0	0	0	506	
10	0	0	0	0	505	
11	0	0	0	0	506	
12	0	0	0	0	510	
13	0	0	0	0	510	
14	0	0	0	0	509	
15	0	0	0	0	510	
0	0	0	0	0	511	
1	0	0	0	0	510	
2	0	0	0	0	505	
3	0	0	0	0	505	
4	0	0	0	0	506	
5	0	0	0	0	506	
6	0	0	0	0	509	
7	0	0	0	0	507	
8	0	0	0	0	508	
9	0	0	0	0	509	
10	0	0	0	0	510	
11	0	0	0	0	510	
12	0	0	0	0	511	
13	0	0	0	0	512	
14	0	0	0	0	512	
15	0	0	0	0	504	
0	0	0	0	0	497	
1	0	0	0	0	499	
2	0	0	0	0	502	
3	0	0	0	0	511	
4	0	0	0	0	514	
5	0	0	0	0	518	
6	0	0	0	0	512	
7	0	0	0	0	510	
8	0	0	0	0	508	
9	0	0	0	0	503	
10	0	0	0	0	499	
11	0	0	0	0	499	
12	0	0	0	0	504	
13	0	0	0	0	507	
14	0	0	0	0	509	
15	0	0	0	0	508	
0	0	0	0	0	507	
1	0	0	0	0	506	
2	0	0	0	0	509	
3	0	0	0	0	508	
4	0	0	0	0	509	
5	0	0	0	0	510	
6	0	0	0	0	509	
7	0	0	0	0	506	
8	0	0	0	0	509	
9	0	0	0	0	512	
10	0	0	0	0	508	
11	0	0	0	0	506	
12	0	0	0	0	504	
13	0	0	0	0	504	
14	0	0	0	0	505	
15	0	0	0	0	506	
0	0	0	0	0	509	
1	0	0	0	0	513	
2	0	0	0	0	515	
3	0	0	0	0	512	
4	0	0	0	0	510	
5	0	0	0	0	513	
6	0	0	0	0	513	
7	0	0	0	0	511	
8	0	0	0	0	507	
9	0	0	0	0	507	
10	0	0	0	0	507	
11	0	0	0	0	510	
12	0	0	0	0	509	
13	0	0	0	0	508	
14	0	0	0	0	508	
15	0	0	0	0	506	
0	0	0	0	0	506	
1	0	0	0	0	508	
2	0	0	0	0	508	
3	0	0	0	0	508	
4	0	0	0	0	507	
5	0	0	0	0	506	
6	0	0	0	0	506	
7	0	0	0	0	509	
8	0	0	0	0	507	
9	0	0	0	0	508	
10	0	0	0	0	510	
11	0	0	0	0	504	
12	0	0	0	0	508	
13	0	0	0	0	509	
14	0	0	0	0	509	
15	0	0	0	0	509	
0	0	0	0	0	509	
1	0	0	0	0	508	
2	0	0	0	0	509	
3	0	0	0	0	508	
4	0	0	0	0	508	
5	0	0	0	0	508	
6	0	0	0	0	508	
7	0	0	0	0	503	
8	0	0	0	0	504	
9	0	0	0	0	504	
10	0	0	0	0	507	
11	0	0	0	0	508	
12	0	0	0	0	507	
13	0	0	0	0	506	
14	0	0	0	0	506	
15	0	0	0	0	508	
0	0	0	0	0	508	
1	0	0	0	0	509	
2	0	0	0	0	508	
3	0	0	0	0	506	
4	0	0	0	0	508	
5	0	0	0	0	509	
6	0	0	0	0	507	
7	0	0	0	0	508	
8	0	0	0	0	508	
9	0	0	0	0	509	
10	0	0	0	0	510	
11	0	0	0	0	508	
12	0	0	0	0	507	
13	0	0	0	0	507	
14	0	0	0	0	507	
15	0	0	0	0	505	
0	0	0	0	0	505	
1	0	0	0	0	509	
2	0	0	0	0	508	
3	0	0	0	0	508	
4	0	0	0	0	508	
5	0	0	0	0	509	
6	0	0	0	0	506	
7	0	0	0	0	508	
8	0	0	0	0	508	
9	0	0	0	0	510	
10	0	0	0	0	508	
11	0	0	0	0	506	
12	0	0	0	0	508	
13	0	0	0	0	507	
14	0	0	0	0	508	
15	0	0	0	0	510	
0	0	0	0	0	510	
1	0	0	0	0	509	
2	0	0	0	0	509	
3	0	0	0	0	508	
4	0	0	0	0	510	
5	0	0	0	0	507	
6	0	0	0	0	509	
7	0	0	0	0	509	
8	0	0	0	0	505	
9	0	0	0	0	504	
10	0	0	0	0	507	
11	0	0	0	0	507	
12	0	0	0	0	507	
13	0	0	0	0	506	
14	0	0	0	0	506	
15	0	0	0	0	507	
0	0	0	0	0	508	
1	0	0	0	0	511	
2	0	0	0	0	510	
3	0	0	0	0	511	
4	0	0	0	0	510	
5	0	0	0	0	505	
6	0	0	0	0	505	
7	0	0	0	0	506	
8	0	0	0	0	507	
9	0	0	0	0	505	
10	0	0	0	0	508	
11	0	0	0	0	507	
12	0	0	0	0	509	
13	0	0	0	0	508	
14	0	0	0	0	507	
15	0	0	0	0	505	
0	0	0	0	0	507	
1	0	0	0	0	506	
2	0	0	0	0	505	
3	0	0	0	0	507	
4	0	0	0	0	508	
5	0	0	0	0	507	
6	0	0	0	0	508	
7	0	0	0	0	510	
8	0	0	0	0	506	
9	0	0	0	0	509	
10	0	0	0	0	498	
11	0	0	0	0	492	
12	0	0	0	0	491	
13	0	0	0	0	494	
14	0	0	0	0	493	
15	0	0	0	0	496	
0	0	0	0	0	501	
1	0	0	0	0	505	
2	0	0	0	0	506	
3	0	0	0	0	505	
4	0	0	0	0	505	
5	0	0	0	0	508	
6	0	0	0	0	508	
7	0	0	0	0	508	
8	0	0	0	0	509	
9	0	0	0	0	508	
10	0	0	0	0	511	
11	0	0	0	0	512	
12	0	0	0	0	511	
13	0	0	0	0	511	
14	0	0	0	0	512	
15	0	0	0	0	512	
0	0	0	0	0	511	
1	0	0	0	0	512	
2	0	0	0	0	510	
3	0	0	0	0	509	
4	0	0	0	0	511	
5	0	0	0	0	512	
6	0	0	0	0	513	
7	0	0	0	0	513	
8	0	0	0	0	512	
9	0	0	0	0	511	
10	0	0	0	0	510	
11	0	0	0	0	508	
12	0	0	0	0	510	
13	0	0	0	0	511	
14	0	0	0	0	510	
15	0	0	0	0	511	
0	0	0	0	0	511	
1	0	0	0	0	511	
2	0	0	0	0	512	
3	0	0	0	0	511	
4	0	0	0	0	510	
5	0	0	0	0	510	
6	0	0	0	0	509	
7	0	0	0	0	509	
8	0	0	0	0	510	
9	0	0	0	0	505	
10	0	0	0	0	506	
11	0	0	0	0	510	
12	0	0	0	0	510	
13	0	0	0	0	509	
14	0	0	0	0	509	
15	0	0	0	0	508	
0	0	0	0	0	508	
1	0	0	0	0	508	
2	0	0	0	0	507	
3	0	0	0	0	502	
4	0	0	0	0	504	
5	0	0	0	0	505	
6	0	0	0	0	509	
7	0	0	0	0	510	
8	0	0	0	0	507	
9	0	0	0	0	509	
10	0	0	0	0	509	
11	0	0	0	0	507	
12	0	0	0	0	509	
13	0	0	0	0	507	
14	0	0	0	0	509	
15	0	0	0	0	509	
0	0	0	0	0	508	
1	0	0	0	0	509	
2	0	0	0	0	509	
3	0	0	0	0	511	
4	0	0	0	0	512	
5	0	0	0	0	510	
6	0	0	0	0	510	
7	0	0	0	0	509	
8	0	0	0	0	509	
9	0	0	0	0	510	
10	0	0	0	0	509	
11	0	0	0	0	508	
12	0	0	0	0	510	
13	0	0	0	0	508	
14	0	0	0	0	508	
15	0	0	0	0	507	
0	0	0	0	0	507	
1	0	0	0	0	507	
2	0	0	0	0	503	
3	0	0	0	0	504	
4	0	0	0	0	506	
5	0	0	0	0	509	
6	0	0	0	0	507	
7	0	0	0	0	508	
8	0	0	0	0	508	
9	0	0	0	0	509	
10	0	0	0	0	507	
11	0	0	0	0	508	
12	0	0	0	0	508	
13	0	0	0	0	506	
14	0	0	0	0	508	
15	0	0	0	0	506	
0	0	0	0	0	505	
1	0	0	0	0	501	
2	0	0	0	0	502	
3	0	0	0	0	504	
4	0	0	0	0	504	
5	0	0	0	0	508	
6	0	0	0	0	505	
7	0	0	0	0	504	
8	0	0	0	0	503	
9	0	0	0	0	506	
10	0	0	0	0	507	
11	0	0	0	0	508	
12	0	0	0	0	507	
13	0	0	0	0	501	
14	0	0	0	0	501	
15	0	0	0	0	505	
0	0	0	0	0	505	
1	0	0	0	0	505	
2	0	0	0	0	508	
3	0	0	0	0	505	
4	0	0	0	0	507	
5	0	0	0	0	510	
6	0	0	0	0	507	
7	0	0	0	0	504	
8	0	0	0	0	506	
9	0	0	0	0	507	
10	0	0	0	0	507	
11	0	0	0	0	507	
12	0	0	0	0	506	
13	0	0	0	0	506	
14	0	0	0	0	505	
15	0	0	0	0	507	
0	0	0	0	0	504	
1	0	0	0	0	508	
2	0	0	0	0	505	
3	0	0	0	0	507	
4	0	0	0	0	507	
5	0	0	0	0	507	
6	0	0	0	0	508	
7	0	0	0	0	505	
8	0	0	0	0	505	
9	0	0	0	0	503	
10	0	0	0	0	499	
11	0	0	0	0	502	
12	0	0	0	0	502	
13	0	0	0	0	506	
14	0	0	0	0	508	
15	0	0	0	0	512	
0	0	0	0	0	513	
1	0	0	0	0	514	
2	0	0	0	0	512	
3	0	0	0	0	509	
4	0	0	0	0	512	
5	0	0	0	0	513	
6	0	0	0	0	512	
7	0	0	0	0	508	
8	0	0	0	0	508	
9	0	0	0	0	512	
10	0	0	0	0	512	
11	0	0	0	0	510	
12	0	0	0	0	513	
13	0	0	0	0	514	
14	0	0	0	0	513	
15	0	0	0	0	513	
0	0	0	0	0	510	
1	0	0	0	0	512	
2	0	0	0	0	511	
3	0	0	0	0	511	
4	0	0	0	0	511	
5	0	0	0	0	511	
6	0	0	0	0	511	
7	0	0	0	0	508	
8	0	0	0	0	507	
9	0	0	0	0	509	
10	0	0	0	0	510	
11	0	0	0	0	510	
12	0	0	0	0	510	
13	0	0	0	0	511	
14	0	0	0	0	509	
15	0	0	0	0	509	
0	0	0	0	0	507	
1	0	0	0	0	508	
2	0	0	0	0	510	
3	0	0	0	0	508	
4	0	0	0	0	511	
5	0	0	0	0	509	
6	0	0	0	0	508	
7	0	0	0	0	508	
8	0	0	0	0	508	
9	0	0	0	0	509	
10	0	0	0	0	511	
11	0	0	0	0	509	
12	0	0	0	0	509	
13	0	0	0	0	508	
14	0	0	0	0	510	
15	0	0	0	0	508	
0	0	0	0	0	508	
1	0	0	0	0	509	
2	0	0	0	0	512	
3	0	0	0	0	508	
4	0	0	0	0	509	
5	0	0	0	0	508	
6	0	0	0	0	510	
7	0	0	0	0	509	
8	0	0	0	0	507	
9	0	0	0	0	509	
10	0	0	0	0	509	
11	0	0	0	0	509	
12	0	0	0	0	511	
13	0	0	0	0	509	
14	0	0	0	0	507	
15	0	0	0	0	507	
0	0	0	0	0	508	
1	0	0	0	0	510	
2	0	0	0	0	510	
3	0	0	0	0	508	
4	0	0	0	0	507	
5	0	0	0	0	507	
6	0	0	0	0	508	
7	0	0	0	0	508	
8	0	0	0	0	506	
9	0	0	0	0	507	
10	0	0	0	0	506	
11	0	0	0	0	509	
12	0	0	0	0	507	
13	0	0	0	0	508	
14	0	0	0	0	508	
15	0	0	0	0	509	
0	0	0	0	0	508	
1	0	0	0	0	508	
2	0	0	0	0	508	
3	0	0	0	0	508	
4	0	0	0	0	509	
5	0	0	0	0	505	
6	0	0	0	0	508	
7	0	0	0	0	508	
8	0	0	0	0	507	
9	0	0	0	0	508	
10	0	0	0	0	508	
11	0	0	0	0	507	
12	0	0	0	0	505	
13	0	0	0	0	505	
14	0	0	0	0	509	
15	0	0	0	0	508	
0	0	0	0	0	508	
1	0	0	0	0	512	
2	0	0	0	0	507	
3	0	0	0	0	507	
4	0	0	0	0	508	
5	0	0	0	0	509	
6	0	0	0	0	511	
7	0	0	0	0	510	
8	0	0	0	0	514	
9	0	0	0	0	511	
10	0	0	0	0	512	
11	0	0	0	0	511	
12	0	0	0	0	508	
13	0	0	0	0	510	
14	0	0	0	0	510	
15	0	0	0	0	508	
0	0	0	0	0	510	
1	0	0	0	0	509	
2	0	0	0	0	503	
3	0	0	0	0	504	
4	0	0	0	0	508	
5	0	0	0	0	509	
6	0	0	0	0	507	
7	0	0	0	0	509	
8	0	0	0	0	509	
9	0	0	0	0	505	
10	0	0	0	0	508	
11	0	0	0	0	508	
12	0	0	0	0	508	
13	0	0	0	0	503	
14	0	0	0	0	500	
15	0	0	0	0	504	
0	0	0	0	0	504	
1	0	0	0	0	509	
2	0	0	0	0	510	
3	0	0	0	0	515	
4	0	0	0	0	512	
5	0	0	0	0	509	
6	0	0	0	0	506	
7	0	0	0	0	507	
8	0	0	0	0	508	
9	0	0	0	0	508	
10	0	0	0	0	508	
11	0	0	0	0	507	
12	0	0	0	0	507	
13	0	0	0	0	508	
14	0	0	0	0	507	
15	0	0	0	0	506	
0	0	0	0	0	510	
1	0	0	0	0	508	
2	0	0	0	0	509	
3	0	0	0	0	508	
4	0	0	0	0	511	
5	0	0	0	0	511	
6	0	0	0	0	510	
7	0	0	0	0	508	
8	0	0	0	0	508	
9	0	0	0	0	510	
10	0	0	0	0	510	
11	0	0	0	0	508	
12	0	0	0	0	505	
13	0	0	0	0	507	
14	0	0	0	0	507	
15	0	0	0	0	506	
0	0	0	0	0	496	
1	0	0	0	0	501	
2	0	0	0	0	505	
3	0	0	0	0	507	
4	0	0	0	0	510	
5	0	0	0	0	512	
6	0	0	0	0	512	
7	0	0	0	0	509	
8	0	0	0	0	508	
9	0	0	0	0	509	
10	0	0	0	0	508	
11	0	0	0	0	509	
12	0	0	0	0	509	
13	0	0	0	0	508	
14	0	0	0	0	508	
15	0	0	0	0	509	
0	0	0	0	0	510	
1	0	0	0	0	508	
2	0	0	0	0	505	
3	0	0	0	0	504	
4	0	0	0	0	506	
5	0	0	0	0	507	
6	0	0	0	0	509	
7	0	0	0	0	507	
8	0	0	0	0	511	
9	0	0	0	0	508	
10	0	0	0	0	509	
11	0	0	0	0	510	
12	0	0	0	0	512	
13	0	0	0	0	509	
14	0	0	0	0	507	
15	0	0	0	0	508	
0	0	0	0	0	508	
1	0	0	0	0	504	
2	0	0	0	0	506	
3	0	0	0	0	503	
4	0	0	0	0	505	
5	0	0	0	0	507	
6	0	0	0	0	504	
7	0	0	0	0	506	
8	0	0	0	0	508	
9	0	0	0	0	510	
10	0	0	0	0	508	
11	0	0	0	0	507	
12	0	0	0	0	511	
13	0	0	0	0	515	
14	0	0	0	0	515	
15	0	0	0	0	511	
0	0	0	0	0	510	
1	0	0	0	0	507	
2	0	0	0	0	506	
3	0	0	0	0	507	
4	0	0	0	0	510	
5	0	0	0	0	509	
6	0	0	0	0	508	
7	0	0	0	0	507	
8	0	0	0	0	508	
9	0	0	0	0	508	
10	0	0	0	0	504	
11	0	0	0	0	503	
12	0	0	0	0	507	
13	0	0	0	0	507	
14	0	0	0	0	508	
15	0	0	0	0	510	
0	0	0	0	0	508	
1	0	0	0	0	508	
2	0	0	0	0	508	
3	0	0	0	0	509	
4	0	0	0	0	510	
5	0	0	0	0	511	
6	0	0	0	0	509	
7	0	0	0	0	506	
8	0	0	0	0	508	
9	0	0	0	0	506	
10	0	0	0	0	508	
11	0	0	0	0	507	
12	0	0	0	0	507	
13	0	0	0	0	506	
14	0	0	0	0	508	
15	0	0	0	0	509	
0	0	0	0	0	506	
1	0	0	0	0	509	
2	0	0	0	0	507	
3	0	0	0	0	505	
4	0	0	0	0	509	
5	0	0	0	0	511	
6	0	0	0	0	512	
7	0	0	0	0	507	
8	0	0	0	0	509	
9	0	0	0	0	508	
10	0	0	0	0	508	
11	0	0	0	0	512	
12	0	0	0	0	512	
13	0	0	0	0	505	
14	0	0	0	0	503	
15	0	0	0	0	503	
0	0	0	0	0	505	
1	0	0	0	0	507	
2	0	0	0	0	508	
3	0	0	0	0	508	
4	0	0	0	0	505	
5	0	0	0	0	506	
6	0	0	0	0	506	
7	0	0	0	0	510	
8	0	0	0	0	512	
9	0	0	0	0	507	
10	0	0	0	0	510	
11	0	0	0	0	508	
12	0	0	0	0	509	
13	0	0	0	0	510	
14	0	0	0	0	507	
15	0	0	0	0	511	
0	0	0	0	0	510	
1	0	0	0	0	507	
2	0	0	0	0	507	
3	0	0	0	0	505	
4	0	0	0	0	504	
5	0	0	0	0	505	
6	0	0	0	0	508	
7	0	0	0	0	510	
8	0	0	0	0	508	
9	0	0	0	0	508	
10	0	0	0	0	506	
11	0	0	0	0	504	
12	0	0	0	0	505	
13	0	0	0	0	506	
14	0	0	0	0	510	
15	0	0	0	0	510	
0	0	0	0	0	508	
1	0	0	0	0	506	
2	0	0	0	0	508	
3	0	0	0	0	511	
4	0	0	0	0	512	
5	0	0	0	0	508	
6	0	0	0	0	508	
7	0	0	0	0	506	
8	0	0	0	0	508	
9	0	0	0	0	508	
10	0	0	0	0	510	
11	0	0	0	0	511	
12	0	0	0	0	507	
13	0	0	0	0	507	
14	0	0	0	0	506	
15	0	0	0	0	505	
0	0	0	0	0	506	
1	0	0	0	0	503	
2	0	0	0	0	506	
3	0	0	0	0	507	
4	0	0	0	0	506	
5	0	0	0	0	505	
6	0	0	0	0	507	
7	0	0	0	0	508	
8	0	0	0	0	508	
9	0	0	0	0	512	
10	0	0	0	0	511	
11	0	0	0	0	511	
12	0	0	0	0	509	
13	0	0	0	0	507	
14	0	0	0	0	508	
15	0	0	0	0	507	
0	0	0	0	0	507	
1	0	0	0	0	507	
2	0	0	0	0	507	
3	0	0	0	0	507	
4	0	0	0	0	508	
5	0	0	0	0	508	
6	0	0	0	0	508	
7	0	0	0	0	508	
8	0	0	0	0	506	
9	0	0	0	0	508	
10	0	0	0	0	508	
11	0	0	0	0	510	
12	0	0	0	0	507	
13	0	0	0	0	508	
14	0	0	0	0	508	
15	0	0	0	0	506	
0	0	0	0	0	503	
1	0	0	0	0	503	
2	0	0	0	0	504	
3	0	0	0	0	508	
4	0	0	0	0	510	
5	0	0	0	0	513	
6	0	0	0	0	511	
7	0	0	0	0	509	
8	0	0	0	0	507	
9	0	0	0	0	506	
10	0	0	0	0	507	
11	0	0	0	0	510	
12	0	0	0	0	513	
13	0	0	0	0	511	
14	0	0	0	0	507	
15	0	0	0	0	508	
0	0	0	0	0	508	
1	0	0	0	0	507	
2	0	0	0	0	505	
3	0	0	0	0	504	
4	0	0	0	0	506	
5	0	0	0	0	504	
6	0	0	0	0	507	
7	0	0	0	0	505	
8	0	0	0	0	508	
9	0	0	0	0	508	
10	0	0	0	0	511	
11	0	0	0	0	514	
12	0	0	0	0	511	
13	0	0	0	0	508	
14	0	0	0	0	508	
15	0	0	0	0	507	
0	0	0	0	0	504	
1	0	0	0	0	506	
2	0	0	0	0	507	
3	0	0	0	0	505	
4	0	0	0	0	508	
5	0	0	0	0	508	
6	0	0	0	0	505	
7	0	0	0	0	508	
8	0	0	0	0	509	
9	0	0	0	0	514	
10	0	0	0	0	510	
11	0	0	0	0	508	
12	0	0	0	0	509	
13	0	0	0	0	507	
14	0	0	0	0	507	
15	0	0	0	0	506	
0	0	0	0	0	506	
1	0	0	0	0	507	
2	0	0	0	0	507	
3	0	0	0	0	507	
4	0	0	0	0	508	
5	0	0	0	0	509	
6	0	0	0	0	505	
7	0	0	0	0	506	
8	0	0	0	0	510	
9	0	0	0	0	507	
10	0	0	0	0	508	
11	0	0	0	0	509	
12	0	0	0	0	510	
13	0	0	0	0	509	
14	0	0	0	0	510	
15	0	0	0	0	510	
0	0	0	0	0	507	
1	0	0	0	0	508	
2	0	0	0	0	509	
3	0	0	0	0	506	
4	0	0	0	0	508	
5	0	0	0	0	509	
6	0	0	0	0	507	
7	0	0	0	0	507	
8	0	0	0	0	506	
9	0	0	0	0	506	
10	0	0	0	0	505	
11	0	0	0	0	506	
12	0	0	0	0	509	
13	0	0	0	0	508	
14	0	0	0	0	508	
15	0	0	0	0	506	
0	0	0	0	0	506	
1	0	0	0	0	507	
2	0	0	0	0	508	
3	0	0	0	0	508	
4	0	0	0	0	507	
5	0	0	0	0	505	
6	0	0	0	0	508	
7	0	0	0	0	508	
8	0	0	0	0	507	
9	0	0	0	0	506	
10	0	0	0	0	508	
11	0	0	0	0	506	
12	0	0	0	0	508	
13	0	0	0	0	507	
14	0	0	0	0	509	
15	0	0	0	0	509	
0	0	0	0	0	508	
1	0	0	0	0	508	
2	0	0	0	0	508	
3	0	0	0	0	511	
4	0	0	0	0	513	
5	0	0	0	0	509	
6	0	0	0	0	507	
7	0	0	0	0	507	
8	0	0	0	0	511	
9	0	0	0	0	507	
10	0	0	0	0	506	
11	0	0	0	0	511	
12	0	0	0	0	510	
13	0	0	0	0	505	
14	0	0	0	0	504	
15	0	0	0	0	508	
0	0	0	0	0	507	
1	0	0	0	0	509	
2	0	0	0	0	509	
3	0	0	0	0	508	
4	0	0	0	0	510	
5	0	0	0	0	509	
6	0	0	0	0	507	
7	0	0	0	0	508	
8	0	0	0	0	506	
9	0	0	0	0	507	
10	0	0	0	0	510	
11	0	0	0	0	509	
12	0	0	0	0	510	
13	0	0	0	0	512	
14	0	0	0	0	508	
15	0	0	0	0	506	
0	0	0	0	0	507	
1	0	0	0	0	504	
2	0	0	0	0	505	
3	0	0	0	0	507	
4	0	0	0	0	510	
5	0	0	0	0	510	
6	0	0	0	0	510	
7	0	0	0	0	506	
8	0	0	0	0	508	
9	0	0	0	0	507	
10	0	0	0	0	508	
11	0	0	0	0	512	
12	0	0	0	0	510	
13	0	0	0	0	508	
14	0	0	0	0	508	
15	0	0	0	0	505	
0	0	0	0	0	504	
1	0	0	0	0	505	
2	0	0	0	0	506	
3	0	0	0	0	505	
4	0	0	0	0	505	
5	0	0	0	0	508	
6	0	0	0	0	507	
7	0	0	0	0	506	
8	0	0	0	0	505	
9	0	0	0	0	506	
10	0	0	0	0	507	
11	0	0	0	0	509	
12	0	0	0	0	510	
13	0	0	0	0	508	
14	0	0	0	0	508	
15	0	0	0	0	508	
0	0	0	0	0	507	
1	0	0	0	0	508	
2	0	0	0	0	509	
3	0	0	0	0	508	
4	0	0	0	0	509	
5	0	0	0	0	507	
6	0	0	0	0	507	
7	0	0	0	0	507	
8	0	0	0	0	510	
9	0	0	0	0	515	
10	0	0	0	0	514	
11	0	0	0	0	506	
12	0	0	0	0	507	
13	0	0	0	0	508	
14	0	0	0	0	509	
15	0	0	0	0	507	
0	0	0	0	0	505	
1	0	0	0	0	505	
2	0	0	0	0	508	
3	0	0	0	0	508	
4	0	0	0	0	510	
5	0	0	0	0	505	
6	0	0	0	0	507	
7	0	0	0	0	506	
8	0	0	0	0	507	
9	0	0	0	0	507	
10	0	0	0	0	504	
11	0	0	0	0	508	
12	0	0	0	0	507	
13	0	0	0	0	506	
14	0	0	0	0	506	
15	0	0	0	0	505	
0	0	0	0	0	508	
1	0	0	0	0	506	
2	0	0	0	0	508	
3	0	0	0	0	509	
4	0	0	0	0	511	
5	0	0	0	0	508	
6	0	0	0	0	511	
7	0	0	0	0	508	
8	0	0	0	0	510	
9	0	0	0	0	512	
10	0	0	0	0	509	
11	0	0	0	0	507	
12	0	0	0	0	508	
13	0	0	0	0	507	
14	0	0	0	0	506	
15	0	0	0	0	507	
0	0	0	0	0	507	
1	0	0	0	0	507	
2	0	0	0	0	507	
3	0	0	0	0	505	
4	0	0	0	0	511	
5	0	0	0	0	512	
6	0	0	0	0	514	
7	0	0	0	0	511	
8	0	0	0	0	509	
9	0	0	0	0	507	
10	0	0	0	0	505	
11	0	0	0	0	507	
12	0	0	0	0	505	
13	0	0	0	0	506	
14	0	0	0	0	506	
15	0	0	0	0	507	
0	0	0	0	0	505	
1	0	0	0	0	506	
2	0	0	0	0	508	
3	0	0	0	0	506	
4	0	0	0	0	506	
5	0	0	0	0	509	
6	0	0	0	0	508	
7	0	0	0	0	509	
8	0	0	0	0	508	
9	0	0	0	0	508	
10	0	0	0	0	504	
11	0	0	0	0	507	
12	0	0	0	0	508	
13	0	0	0	0	507	
14	0	0	0	0	507	
15	0	0	0	0	511	
0	0	0	0	0	511	
1	0	0	0	0	511	
2	0	0	0	0	516	
3	0	0	0	0	510	
4	0	0	0	0	509	
5	0	0	0	0	506	
6	0	0	0	0	505	
7	0	0	0	0	508	
8	0	0	0	0	508	
9	0	0	0	0	507	
10	0	0	0	0	508	
11	0	0	0	0	504	
12	0	0	0	0	505	
13	0	0	0	0	505	
14	0	0	0	0	507	
15	0	0	0	0	507	
0	0	0	0	0	507	
1	0	0	0	0	506	
2	0	0	0	0	508	
3	0	0	0	0	510	
4	0	0	0	0	509	
5	0	0	0	0	513	
6	0	0	0	0	510	
7	0	0	0	0	506	
8	0	0	0	0	505	
9	0	0	0	0	508	
10	0	0	0	0	511	
11	0	0	0	0	508	
12	0	0	0	0	508	
13	0	0	0	0	508	
14	0	0	0	0	507	
15	0	0	0	0	509	
0	0	0	0	0	508	
1	0	0	0	0	508	
2	0	0	0	0	507	
3	0	0	0	0	507	
4	0	0	0	0	511	
5	0	0	0	0	507	
6	0	0	0	0	508	
7	0	0	0	0	506	
8	0	0	0	0	508	
9	0	0	0	0	508	
10	0	0	0	0	507	
11	0	0	0	0	507	
12	0	0	0	0	507	
13	0	0	0	0	506	
14	0	0	0	0	507	
15	0	0	0	0	509	
0	0	0	0	0	508	
1	0	0	0	0	507	
2	0	0	0	0	508	
3	0	0	0	0	512	
4	0	0	0	0	512	
5	0	0	0	0	508	
6	0	0	0	0	509	
7	0	0	0	0	509	
8	0	0	0	0	511	
9	0	0	0	0	509	
10	0	0	0	0	509	
11	0	0	0	0	510	
12	0	0	0	0	511	
13	0	0	0	0	509	
14	0	0	0	0	507	
15	0	0	0	0	504	
0	0	0	0	0	505	
1	0	0	0	0	506	
2	0	0	0	0	504	
3	0	0	0	0	505	
4	0	0	0	0	505	
5	0	0	0	0	506	
6	0	0	0	0	507	
7	0	0	0	0	505	
8	0	0	0	0	509	
9	0	0	0	0	508	
10	0	0	0	0	508	
11	0	0	0	0	507	
12	0	0	0	0	505	
13	0	0	0	0	508	
14	0	0	0	0	506	
15	0	0	0	0	506	
0	0	0	0	0	507	
1	0	0	0	0	508	
2	0	0	0	0	510	
3	0	0	0	0	509	
4	0	0	0	0	507	
5	0	0	0	0	504	
6	0	0	0	0	507	
7	0	0	0	0	508	
8	0	0	0	0	508	
9	0	0	0	0	508	
10	0	0	0	0	508	
11	0	0	0	0	512	
12	0	0	0	0	513	
13	0	0	0	0	509	
14	0	0	0	0	509	
15	0	0	0	0	508	
0	0	0	0	0	506	
1	0	0	0	0	505	
2	0	0	0	0	503	
3	0	0	0	0	503	
4	0	0	0	0	503	
5	0	0	0	0	502	
6	0	0	0	0	503	
7	0	0	0	0	505	
8	0	0	0	0	503	
9	0	0	0	0	503	
10	0	0	0	0	500	
11	0	0	0	0	501	
12	0	0	0	0	500	
13	0	0	0	0	498	
14	0	0	0	0	492	
15	0	0	0	0	485	
0	0	0	0	0	484	
1	0	0	0	0	486	
2	0	0	0	0	488	
3	0	0	0	0	491	
4	0	0	0	0	494	
5	0	0	0	0	500	
6	0	0	0	0	500	
7	0	0	0	0	506	
8	0	0	0	0	508	
9	0	0	0	0	511	
10	0	0	0	0	515	
11	0	0	0	0	509	
12	0	0	0	0	511	
13	0	0	0	0	509	
14	0	0	0	0	510	
15	0	0	0	0	510	
0	0	0	0	0	511	
1	0	0	0	0	511	
2	0	0	0	0	510	
3	0	0	0	0	511	
4	0	0	0	0	511	
5	0	0	0	0	510	
6	0	0	0	0	510	
7	0	0	0	0	512	
8	0	0	0	0	512	
9	0	0	0	0	513	
10	0	0	0	0	516	
11	0	0	0	0	515	
12	0	0	0	0	514	
13	0	0	0	0	514	
14	0	0	0	0	512	
15	0	0	0	0	517	
0	0	0	0	0	512	
1	0	0	0	0	512	
2	0	0	0	0	511	
3	0	0	0	0	512	
4	0	0	0	0	512	
5	0	0	0	0	512	
6	0	0	0	0	514	
7	0	0	0	0	515	
8	0	0	0	0	516	
9	0	0	0	0	513	
10	0	0	0	0	512	
11	0	0	0	0	510	
12	0	0	0	0	509	
13	0	0	0	0	509	
14	0	0	0	0	512	
15	0	0	0	0	511	
0	0	0	0	0	511	
1	0	0	0	0	510	
2	0	0	0	0	510	
3	0	0	0	0	511	
4	0	0	0	0	508	
5	0	0	0	0	509	
6	0	0	0	0	509	
7	0	0	0	0	509	
8	0	0	0	0	510	
9	0	0	0	0	506	
10	0	0	0	0	508	
11	0	0	0	0	507	
12	0	0	0	0	509	
13	0	0	0	0	511	
14	0	0	0	0	510	
15	0	0	0	0	508	
0	0	0	0	0	511	
1	0	0	0	0	510	
2	0	0	0	0	509	
3	0	0	0	0	513	
4	0	0	0	0	512	
5	0	0	0	0	510	
6	0	0	0	0	507	
7	0	0	0	0	507	
8	0	0	0	0	507	
9	0	0	0	0	508	
10	0	0	0	0	508	
11	0	0	0	0	506	
12	0	0	0	0	507	
13	0	0	0	0	510	
14	0	0	0	0	506	
15	0	0	0	0	508	
0	0	0	0	0	508	
1	0	0	0	0	508	
2	0	0	0	0	506	
3	0	0	0	0	509	
4	0	0	0	0	508	
5	0	0	0	0	508	
6	0	0	0	0	508	
7	0	0	0	0	505	
8	0	0	0	0	507	
9	0	0	0	0	508	
10	0	0	0	0	508	
11	0	0	0	0	508	
12	0	0	0	0	511	
13	0	0	0	0	510	
14	0	0	0	0	513	
15	0	0	0	0	516	
0	0	0	0	0	514	
1	0	0	0	0	510	
2	0	0	0	0	509	
3	0	0	0	0	506	
4	0	0	0	0	506	
5	0	0	0	0	507	
6	0	0	0	0	508	
7	0	0	0	0	508	
8	0	0	0	0	507	
9	0	0	0	0	509	
10	0	0	0	0	509	
11	0	0	0	0	507	
12	0	0	0	0	508	
13	0	0	0	0	505	
14	0	0	0	0	508	
15	0	0	0	0	508	
0	0	0	0	0	505	
1	0	0	0	0	504	
2	0	0	0	0	509	
3	0	0	0	0	507	
4	0	0	0	0	510	
5	0	0	0	0	513	
6	0	0	0	0	513	
7	0	0	0	0	510	
8	0	0	0	0	508	
9	0	0	0	0	505	
10	0	0	0	0	504	
11	0	0	0	0	505	
12	0	0	0	0	503	
13	0	0	0	0	508	
14	0	0	0	0	508	
15	0	0	0	0	507	
0	0	0	0	0	508	
1	0	0	0	0	508	
2	0	0	0	0	511	
3	0	0	0	0	511	
4	0	0	0	0	513	
5	0	0	0	0	511	
6	0	0	0	0	507	
7	0	0	0	0	506	
8	0	0	0	0	505	
9	0	0	0	0	507	
10	0	0	0	0	507	
11	0	0	0	0	505	
12	0	0	0	0	508	
13	0	0	0	0	507	
14	0	0	0	0	508	
15	0	0	0	0	507	
0	0	0	0	0	508	
1	0	0	0	0	506	
2	0	0	0	0	507	
3	0	0	0	0	507	
4	0	0	0	0	508	
5	0	0	0	0	509	
6	0	0	0	0	507	
7	0	0	0	0	507	
8	0	0	0	0	505	
9	0	0	0	0	505	
10	0	0	0	0	508	
11	0	0	0	0	509	
12	0	0	0	0	511	
13	0	0	0	0	510	
14	0	0	0	0	508	
15	0	0	0	0	511	
0	0	0	0	0	508	
1	0	0	0	0	510	
2	0	0	0	0	507	
3	0	0	0	0	507	
4	0	0	0	0	508	
5	0	0	0	0	505	
6	0	0	0	0	507	
7	0	0	0	0	504	
8	0	0	0	0	507	
9	0	0	0	0	506	
10	0	0	0	0	509	
11	0	0	0	0	509	
12	0	0	0	0	507	
13	0	0	0	0	505	
14	0	0	0	0	506	
15	0	0	0	0	505	
0	0	0	0	0	508	
1	0	0	0	0	507	
2	0	0	0	0	509	
3	0	0	0	0	510	
4	0	0	0	0	508	
5	0	0	0	0	511	
6	0	0	0	0	514	
7	0	0	0	0	511	
8	0	0	0	0	509	
9	0	0	0	0	507	
10	0	0	0	0	507	
11	0	0	0	0	505	
12	0	0	0	0	504	
13	0	0	0	0	507	
14	0	0	0	0	509	
15	0	0	0	0	508	
0	0	0	0	0	508	
1	0	0	0	0	508	
2	0	0	0	0	508	
3	0	0	0	0	507	
4	0	0	0	0	505	
5	0	0	0	0	507	
6	0	0	0	0	508	
7	0	0	0	0	507	
8	0	0	0	0	508	
9	0	0	0	0	507	
10	0	0	0	0	509	
11	0	0	0	0	508	
12	0	0	0	0	507	
13	0	0	0	0	507	
14	0	0	0	0	506	
15	0	0	0	0	508	
0	0	0	0	0	510	
1	0	0	0	0	508	
2	0	0	0	0	504	
3	0	0	0	0	506	
4	0	0	0	0	503	
5	0	0	0	0	504	
6	0	0	0	0	503	
7	0	0	0	0	503	
8	0	0	0	0	505	
9	0	0	0	0	505	
10	0	0	0	0	507	
11	0	0	0	0	508	
12	0	0	0	0	507	
13	0	0	0	0	510	
14	0	0	0	0	506	
15	0	0	0	0	505	
0	0	0	0	0	505	
1	0	0	0	0	506	
2	0	0	0	0	508	
3	0	0	0	0	511	
4	0	0	0	0	511	
5	0	0	0	0	510	
6	0	0	0	0	513	
7	0	0	0	0	514	
8	0	0	0	0	512	
9	0	0	0	0	510	
10	0	0	0	0	511	
11	0	0	0	0	512	
12	0	0	0	0	511	
13	0	0	0	0	511	
14	0	0	0	0	509	
15	0	0	0	0	510	
0	0	0	0	0	507	
1	0	0	0	0	507	
2	0	0	0	0	508	
3	0	0	0	0	506	
4	0	0	0	0	508	
5	0	0	0	0	509	
6	0	0	0	0	509	
7	0	0	0	0	508	
8	0	0	0	0	507	
9	0	0	0	0	506	
10	0	0	0	0	509	
11	0	0	0	0	509	
12	0	0	0	0	513	
13	0	0	0	0	513	
14	0	0	0	0	510	
15	0	0	0	0	507	
0	0	0	0	0	505	
1	0	0	0	0	507	
2	0	0	0	0	509	
3	0	0	0	0	507	
4	0	0	0	0	508	
5	0	0	0	0	506	
6	0	0	0	0	508	
7	0	0	0	0	507	
8	0	0	0	0	508	
9	0	0	0	0	506	
10	0	0	0	0	506	
11	0	0	0	0	505	
12	0	0	0	0	506	
13	0	0	0	0	507	
14	0	0	0	0	508	
15	0	0	0	0	509	
0	0	0	0	0	508	
1	0	0	0	0	508	
2	0	0	0	0	511	
3	0	0	0	0	510	
4	0	0	0	0	508	
5	0	0	0	0	510	
6	0	0	0	0	509	
7	0	0	0	0	507	
8	0	0	0	0	508	
9	0	0	0	0	509	
10	0	0	0	0	508	
11	0	0	0	0	507	
12	0	0	0	0	509	
13	0	0	0	0	509	
14	0	0	0	0	507	
15	0	0	0	0	510	
0	0	0	0	0	509	
1	0	0	0	0	510	
2	0	0	0	0	510	
3	0	0	0	0	510	
4	0	0	0	0	510	
5	0	0	0	0	509	
6	0	0	0	0	511	
7	0	0	0	0	509	
8	0	0	0	0	509	
9	0	0	0	0	511	
10	0	0	0	0	511	
11	0	0	0	0	511	
12	0	0	0	0	513	
13	0	0	0	0	514	
14	0	0	0	0	513	
15	0	0	0	0	512	
0	0	0	0	0	512	
1	0	0	0	0	512	
2	0	0	0	0	511	
3	0	0	0	0	512	
4	0	0	0	0	513	
5	0	0	0	0	508	
6	0	0	0	0	510	
7	0	0	0	0	507	
8	0	0	0	0	508	
9	0	0	0	0	507	
10	0	0	0	0	510	
11	0	0	0	0	510	
12	0	0	0	0	509	
13	0	0	0	0	507	
14	0	0	0	0	509	
15	0	0	0	0	510	
0	0	0	0	0	510	
1	0	0	0	0	509	
2	0	0	0	0	511	
3	0	0	0	0	509	
4	0	0	0	0	510	
5	0	0	0	0	508	
6	0	0	0	0	508	
7	0	0	0	0	509	
8	0	0	0	0	508	
9	0	0	0	0	504	
10	0	0	0	0	503	
11	0	0	0	0	505	
12	0	0	0	0	507	
13	0	0	0	0	504	
14	0	0	0	0	510	
15	0	0	0	0	509	
0	0	0	0	0	507	
1	0	0	0	0	509	
2	0	0	0	0	512	
3	0	0	0	0	508	
4	0	0	0	0	506	
5	0	0	0	0	505	
6	0	0	0	0	505	
7	0	0	0	0	504	
8	0	0	0	0	500	
9	0	0	0	0	501	
10	0	0	0	0	502	
11	0	0	0	0	504	
12	0	0	0	0	505	
13	0	0	0	0	501	
14	0	0	0	0	503	
15	0	0	0	0	504	
0	0	0	0	0	505	
1	0	0	0	0	504	
2	0	0	0	0	503	
3	0	0	0	0	505	
4	0	0	0	0	502	
5	0	0	0	0	505	
6	0	0	0	0	506	
7	0	0	0	0	507	
8	0	0	0	0	506	
9	0	0	0	0	505	
10	0	0	0	0	507	
11	0	0	0	0	507	
12	0	0	0	0	512	
13	0	0	0	0	512	
14	0	0	0	0	508	
15	0	0	0	0	508	
0	0	0	0	0	505	
1	0	0	0	0	507	
2	0	0	0	0	508	
3	0	0	0	0	507	
4	0	0	0	0	507	
5	0	0	0	0	508	
6	0	0	0	0	505	
7	0	0	0	0	504	
8	0	0	0	0	508	
9	0	0	0	0	510	
10	0	0	0	0	510	
11	0	0	0	0	508	
12	0	0	0	0	508	
13	0	0	0	0	506	
14	0	0	0	0	508	
15	0	0	0	0	507	
0	0	0	0	0	505	
1	0	0	0	0	507	
2	0	0	0	0	508	
3	0	0	0	0	508	
4	0	0	0	0	509	
5	0	0	0	0	508	
6	0	0	0	0	507	
7	0	0	0	0	508	
8	0	0	0	0	509	
9	0	0	0	0	509	
10	0	0	0	0	510	
11	0	0	0	0	509	
12	0	0	0	0	510	
13	0	0	0	0	508	
14	0	0	0	0	507	
15	0	0	0	0	506	
0	0	0	0	0	508	
1	0	0	0	0	507	
2	0	0	0	0	506	
3	0	0	0	0	505	
4	0	0	0	0	508	
5	0	0	0	0	508	
6	0	0	0	0	506	
7	0	0	0	0	506	
8	0	0	0	0	505	
9	0	0	0	0	506	
10	0	0	0	0	507	
11	0	0	0	0	508	
12	0	0	0	0	509	
13	0	0	0	0	511	
14	0	0	0	0	512	
15	0	0	0	0	513	
0	0	0	0	0	510	
1	0	0	0	0	505	
2	0	0	0	0	507	
3	0	0	0	0	506	
4	0	0	0	0	509	
5	0	0	0	0	507	
6	0	0	0	0	504	
7	0	0	0	0	507	
8	0	0	0	0	507	
9	0	0	0	0	505	
10	0	0	0	0	510	
11	0	0	0	0	509	
12	0	0	0	0	511	
13	0	0	0	0	510	
14	0	0	0	0	510	
15	0	0	0	0	507	
0	0	0	0	0	508	
1	0	0	0	0	507	
2	0	0	0	0	504	
3	0	0	0	0	505	
4	0	0	0	0	508	
5	0	0	0	0	507	
6	0	0	0	0	505	
7	0	0	0	0	505	
8	0	0	0	0	507	
9	0	0	0	0	506	
10	0	0	0	0	507	
11	0	0	0	0	508	
12	0	0	0	0	508	
13	0	0	0	0	508	
14	0	0	0	0	508	
15	0	0	0	0	511	
0	0	0	0	0	508	
1	0	0	0	0	510	
2	0	0	0	0	505	
3	0	0	0	0	508	
4	0	0	0	0	511	
5	0	0	0	0	508	
6	0	0	0	0	509	
7	0	0	0	0	508	
8	0	0	0	0	508	
9	0	0	0	0	505	
10	0	0	0	0	504	
11	0	0	0	0	506	
12	0	0	0	0	508	
13	0	0	0	0	507	
14	0	0	0	0	509	
15	0	0	0	0	510	
0	0	0	0	0	510	
1	0	0	0	0	510	
2	0	0	0	0	509	
3	0	0	0	0	508	
4	0	0	0	0	507	
5	0	0	0	0	507	
6	0	0	0	0	507	
7	0	0	0	0	508	
8	0	0	0	0	509	
9	0	0	0	0	508	
10	0	0	0	0	509	
11	0	0	0	0	508	
12	0	0	0	0	508	
13	0	0	0	0	509	
14	0	0	0	0	507	
15	0	0	0	0	507	
0	0	0	0	0	505	
1	0	0	0	0	506	
2	0	0	0	0	507	
3	0	0	0	0	509	
4	0	0	0	0	509	
5	0	0	0	0	508	
6	0	0	0	0	508	
7	0	0	0	0	507	
8	0	0	0	0	509	
9	0	0	0	0	507	
10	0	0	0	0	507	
11	0	0	0	0	506	
12	0	0	0	0	507	
13	0	0	0	0	504	
14	0	0	0	0	508	
15	0	0	0	0	508	
0	0	0	0	0	508	
1	0	0	0	0	511	
2	0	0	0	0	512	
3	0	0	0	0	511	
4	0	0	0	0	511	
5	0	0	0	0	511	
6	0	0	0	0	509	
7	0	0	0	0	510	
8	0	0	0	0	507	
9	0	0	0	0	505	
10	0	0	0	0	505	
11	0	0	0	0	505	
12	0	0	0	0	505	
13	0	0	0	0	508	
14	0	0	0	0	507	
15	0	0	0	0	508	
0	0	0	0	0	509	
1	0	0	0	0	510	
2	0	0	0	0	508	
3	0	0	0	0	513	
4	0	0	0	0	512	
5	0	0	0	0	509	
6	0	0	0	0	506	
7	0	0	0	0	504	
8	0	0	0	0	507	
9	0	0	0	0	505	
10	0	0	0	0	507	
11	0	0	0	0	508	
12	0	0	0	0	508	
13	0	0	0	0	507	
14	0	0	0	0	508	
15	0	0	0	0	515	
0	0	0	0	0	513	
1	0	0	0	0	510	
2	0	0	0	0	510	
3	0	0	0	0	508	
4	0	0	0	0	508	
5	0	0	0	0	504	
6	0	0	0	0	506	
7	0	0	0	0	506	
8	0	0	0	0	508	
9	0	0	0	0	508	
10	0	0	0	0	508	
11	0	0	0	0	509	
12	0	0	0	0	505	
13	0	0	0	0	506	
14	0	0	0	0	507	
15	0	0	0	0	508	
0	0	0	0	0	508	
1	0	0	0	0	508	
2	0	0	0	0	508	
3	0	0	0	0	506	
4	0	0	0	0	508	
5	0	0	0	0	507	
6	0	0	0	0	509	
7	0	0	0	0	509	
8	0	0	0	0	507	
9	0	0	0	0	508	
10	0	0	0	0	505	
11	0	0	0	0	508	
12	0	0	0	0	509	
13	0	0	0	0	509	
14	0	0	0	0	511	
15	0	0	0	0	509	
0	0	0	0	0	508	
1	0	0	0	0	509	
2	0	0	0	0	510	
3	0	0	0	0	512	
4	0	0	0	0	509	
5	0	0	0	0	505	
6	0	0	0	0	507	
7	0	0	0	0	507	
8	0	0	0	0	505	
9	0	0	0	0	507	
10	0	0	0	0	507	
11	0	0	0	0	507	
12	0	0	0	0	506	
13	0	0	0	0	511	
14	0	0	0	0	510	
15	0	0	0	0	508	
0	0	0	0	0	509	
1	0	0	0	0	508	
2	0	0	0	0	510	
3	0	0	0	0	506	
4	0	0	0	0	508	
5	0	0	0	0	507	
6	0	0	0	0	507	
7	0	0	0	0	507	
8	0	0	0	0	505	
9	0	0	0	0	507	
10	0	0	0	0	508	
11	0	0	0	0	506	
12	0	0	0	0	510	
13	0	0	0	0	507	
14	0	0	0	0	509	
15	0	0	0	0	508	
0	0	0	0	0	509	
1	0	0	0	0	510	
2	0	0	0	0	508	
3	0	0	0	0	508	
4	0	0	0	0	509	
5	0	0	0	0	508	
6	0	0	0	0	509	
7	0	0	0	0	507	
8	0	0	0	0	509	
9	0	0	0	0	508	
10	0	0	0	0	507	
11	0	0	0	0	508	
12	0	0	0	0	507	
13	0	0	0	0	506	
14	0	0	0	0	509	
15	0	0	0	0	506	
0	0	0	0	0	505	
1	0	0	0	0	507	
2	0	0	0	0	504	
3	0	0	0	0	505	
4	0	0	0	0	506	
5	0	0	0	0	507	
6	0	0	0	0	508	
7	0	0	0	0	508	
8	0	0	0	0	509	
9	0	0	0	0	509	
10	0	0	0	0	509	
11	0	0	0	0	508	
12	0	0	0	0	510	
13	0	0	0	0	509	
14	0	0	0	0	509	
15	0	0	0	0	509	
0	0	0	0	0	509	
1	0	0	0	0	510	
2	0	0	0	0	509	
3	0	0	0	0	507	
4	0	0	0	0	506	
5	0	0	0	0	507	
6	0	0	0	0	506	
7	0	0	0	0	506	
8	0	0	0	0	507	
9	0	0	0	0	508	
10	0	0	0	0	506	
11	0	0	0	0	508	
12	0	0	0	0	509	
13	0	0	0	0	508	
14	0	0	0	0	508	
15	0	0	0	0	509	
0	0	0	0	0	509	
1	0	0	0	0	505	
2	0	0	0	0	508	
3	0	0	0	0	508	
4	0	0	0	0	510	
5	0	0	0	0	509	
6	0	0	0	0	519	
7	0	0	0	0	519	
8	0	0	0	0	517	
9	0	0	0	0	512	
10	0	0	0	0	511	
11	0	0	0	0	506	
12	0	0	0	0	505	
13	0	0	0	0	502	
14	0	0	0	0	502	
15	0	0	0	0	504	
0	0	0	0	0	502	
1	0	0	0	0	504	
2	0	0	0	0	503	
3	0	0	0	0	502	
4	0	0	0	0	503	
5	0	0	0	0	503	
6	0	0	0	0	502	
7	0	0	0	0	503	
8	0	0	0	0	500	
9	0	0	0	0	503	
10	0	0	0	0	504	
11	0	0	0	0	506	
12	0	0	0	0	504	
13	0	0	0	0	505	
14	0	0	0	0	505	
15	0	0	0	0	506	
0	0	0	0	0	505	
1	0	0	0	0	504	
2	0	0	0	0	507	
3	0	0	0	0	506	
4	0	0	0	0	507	
5	0	0	0	0	507	
6	0	0	0	0	508	
7	0	0	0	0	508	
8	0	0	0	0	507	
9	0	0	0	0	508	
10	0	0	0	0	509	
11	0	0	0	0	508	
12	0	0	0	0	506	
13	0	0	0	0	508	
14	0	0	0	0	507	
15	0	0	0	0	507	
0	0	0	0	0	509	
1	0	0	0	0	508	
2	0	0	0	0	509	
3	0	0	0	0	508	
4	0	0	0	0	507	
5	0	0	0	0	506	
6	0	0	0	0	509	
7	0	0	0	0	507	
8	0	0	0	0	508	
9	0	0	0	0	508	
10	0	0	0	0	507	
11	0	0	0	0	510	
12	0	0	0	0	511	
13	0	0	0	0	507	
14	0	0	0	0	507	
15	0	0	0	0	508	
0	0	0	0	0	507	
1	0	0	0	0	508	
2	0	0	0	0	509	
3	0	0	0	0	508	
4	0	0	0	0	510	
5	0	0	0	0	509	
6	0	0	0	0	510	
7	0	0	0	0	509	
8	0	0	0	0	506	
9	0	0	0	0	505	
10	0	0	0	0	508	
11	0	0	0	0	511	
12	0	0	0	0	511	
13	0	0	0	0	510	
14	0	0	0	0	511	
15	0	0	0	0	510	
0	0	0	0	0	508	
1	0	0	0	0	510	
2	0	0	0	0	508	
3	0	0	0	0	510	
4	0	0	0	0	509	
5	0	0	0	0	507	
6	0	0	0	0	512	
7	0	0	0	0	508	
8	0	0	0	0	509	
9	0	0	0	0	508	
10	0	0	0	0	507	
11	0	0	0	0	507	
12	0	0	0	0	503	
13	0	0	0	0	507	
14	0	0	0	0	509	
15	0	0	0	0	510	
0	0	0	0	0	510	
1	0	0	0	0	511	
2	0	0	0	0	509	
3	0	0	0	0	509	
4	0	0	0	0	504	
5	0	0	0	0	508	
6	0	0	0	0	508	
7	0	0	0	0	507	
8	0	0	0	0	506	
9	0	0	0	0	506	
10	0	0	0	0	504	
11	0	0	0	0	505	
12	0	0	0	0	507	
13	0	0	0	0	511	
14	0	0	0	0	512	
15	0	0	0	0	508	
0	0	0	0	0	507	
1	0	0	0	0	503	
2	0	0	0	0	504	
3	0	0	0	0	504	
4	0	0	0	0	508	
5	0	0	0	0	507	
6	0	0	0	0	508	
7	0	0	0	0	510	
8	0	0	0	0	508	
9	0	0	0	0	508	
10	0	0	0	0	508	
11	0	0	0	0	509	
12	0	0	0	0	510	
13	0	0	0	0	510	
14	0	0	0	0	517	
15	0	0	0	0	523	
0	0	0	0	0	519	
1	0	0	0	0	515	
2	0	0	0	0	512	
3	0	0	0	0	509	
4	0	0	0	0	510	
5	0	0	0	0	508	
6	0	0	0	0	504	
7	0	0	0	0	503	
8	0	0	0	0	505	
9	0	0	0	0	505	
10	0	0	0	0	507	
11	0	0	0	0	508	
12	0	0	0	0	507	
13	0	0	0	0	506	
14	0	0	0	0	507	
15	0	0	0	0	515	
0	0	0	0	0	519	
1	0	0	0	0	513	
2	0	0	0	0	510	
3	0	0	0	0	508	
4	0	0	0	0	507	
5	0	0	0	0	508	
6	0	0	0	0	508	
7	0	0	0	0	505	
8	0	0	0	0	506	
9	0	0	0	0	505	
10	0	0	0	0	506	
11	0	0	0	0	506	
12	0	0	0	0	507	
13	0	0	0	0	505	
14	0	0	0	0	505	
15	0	0	0	0	506	
0	0	0	0	0	507	
1	0	0	0	0	507	
2	0	0	0	0	508	
3	0	0	0	0	507	
4	0	0	0	0	506	
5	0	0	0	0	506	
6	0	0	0	0	508	
7	0	0	0	0	505	
8	0	0	0	0	505	
9	0	0	0	0	507	
10	0	0	0	0	505	
11	0	0	0	0	507	
12	0	0	0	0	507	
13	0	0	0	0	507	
14	0	0	0	0	508	
15	0	0	0	0	507	
0	0	0	0	0	508	
1	0	0	0	0	507	
2	0	0	0	0	506	
3	0	0	0	0	507	
4	0	0	0	0	507	
5	0	0	0	0	510	
6	0	0	0	0	509	
7	0	0	0	0	507	
8	0	0	0	0	511	
9	0	0	0	0	510	
10	0	0	0	0	509	
11	0	0	0	0	507	
12	0	0	0	0	509	
13	0	0	0	0	508	
14	0	0	0	0	506	
15	0	0	0	0	508	
0	0	0	0	0	508	
1	0	0	0	0	506	
2	0	0	0	0	507	
3	0	0	0	0	507	
4	0	0	0	0	508	
5	0	0	0	0	507	
6	0	0	0	0	509	
7	0	0	0	0	508	
8	0	0	0	0	507	
9	0	0	0	0	508	
10	0	0	0	0	505	
11	0	0	0	0	508	
12	0	0	0	0	508	
13	0	0	0	0	508	
14	0	0	0	0	507	
15	0	0	0	0	507	
0	0	0	0	0	507	
1	0	0	0	0	507	
2	0	0	0	0	507	
3	0	0	0	0	508	
4	0	0	0	0	508	
5	0	0	0	0	509	
6	0	0	0	0	509	
7	0	0	0	0	507	
8	0	0	0	0	508	
9	0	0	0	0	508	
10	0	0	0	0	508	
11	0	0	0	0	509	
12	0	0	0	0	510	
13	0	0	0	0	509	
14	0	0	0	0	510	
15	0	0	0	0	509	
0	0	0	0	0	510	
1	0	0	0	0	508	
2	0	0	0	0	511	
3	0	0	0	0	508	
4	0	0	0	0	508	
5	0	0	0	0	508	
6	0	0	0	0	507	
7	0	0	0	0	507	
8	0	0	0	0	505	
9	0	0	0	0	507	
10	0	0	0	0	509	
11	0	0	0	0	507	
12	0	0	0	0	505	
13	0	0	0	0	505	
14	0	0	0	0	505	
15	0	0	0	0	506	
0	0	0	0	0	505	
1	0	0	0	0	508	
2	0	0	0	0	509	
3	0	0	0	0	505	
4	0	0	0	0	506	
5	0	0	0	0	505	
6	0	0	0	0	508	
7	0	0	0	0	507	
8	0	0	0	0	508	
9	0	0	0	0	506	
10	0	0	0	0	507	
11	0	0	0	0	508	
12	0	0	0	0	510	
13	0	0	0	0	510	
14	0	0	0	0	510	
15	0	0	0	0	508	
0	0	0	0	0	507	
1	0	0	0	0	506	
2	0	0	0	0	505	
3	0	0	0	0	509	
4	0	0	0	0	508	
5	0	0	0	0	510	
6	0	0	0	0	507	
7	0	0	0	0	510	
8	0	0	0	0	510	
9	0	0	0	0	508	
10	0	0	0	0	510	
11	0	0	0	0	507	
12	0	0	0	0	508	
13	0	0	0	0	508	
14	0	0	0	0	508	
15	0	0	0	0	508	
0	0	0	0	0	505	
1	0	0	0	0	508	
2	0	0	0	0	504	
3	0	0	0	0	504	
4	0	0	0	0	507	
5	0	0	0	0	504	
6	0	0	0	0	504	
7	0	0	0	0	506	
8	0	0	0	0	505	
9	0	0	0	0	504	
10	0	0	0	0	505	
11	0	0	0	0	504	
12	0	0	0	0	507	
13	0	0	0	0	503	
14	0	0	0	0	502	
15	0	0	0	0	503	
0	0	0	0	0	506	
1	0	0	0	0	503	
2	0	0	0	0	502	
3	0	0	0	0	504	
4	0	0	0	0	506	
5	0	0	0	0	505	
6	0	0	0	0	504	
7	0	0	0	0	506	
8	0	0	0	0	512	
9	0	0	0	0	510	
10	0	0	0	0	509	
11	0	0	0	0	508	
12	0	0	0	0	505	
13	0	0	0	0	504	
14	0	0	0	0	504	
15	0	0	0	0	503	
0	0	0	0	0	506	
1	0	0	0	0	507	
2	0	0	0	0	508	
3	0	0	0	0	507	
4	0	0	0	0	507	
5	0	0	0	0	507	
6	0	0	0	0	509	
7	0	0	0	0	509	
8	0	0	0	0	507	
9	0	0	0	0	506	
10	0	0	0	0	508	
11	0	0	0	0	508	
12	0	0	0	0	508	
13	0	0	0	0	507	
14	0	0	0	0	507	
15	0	0	0	0	508	
0	0	0	0	0	507	
1	0	0	0	0	510	
2	0	0	0	0	509	
3	0	0	0	0	511	
4	0	0	0	0	512	
5	0	0	0	0	512	
6	0	0	0	0	512	
7	0	0	0	0	515	
8	0	0	0	0	515	
9	0	0	0	0	511	
10	0	0	0	0	513	
11	0	0	0	0	513	
12	0	0	0	0	513	
13	0	0	0	0	512	
14	0	0	0	0	511	
15	0	0	0	0	509	
0	0	0	0	0	510	
1	0	0	0	0	510	
2	0	0	0	0	510	
3	0	0	0	0	508	
4	0	0	0	0	511	
5	0	0	0	0	511	
6	0	0	0	0	507	
7	0	0	0	0	509	
8	0	0	0	0	507	
9	0	0	0	0	508	
10	0	0	0	0	510	
11	0	0	0	0	511	
12	0	0	0	0	510	
13	0	0	0	0	510	
14	0	0	0	0	508	
15	0	0	0	0	506	
0	0	0	0	0	510	
1	0	0	0	0	508	
2	0	0	0	0	508	
3	0	0	0	0	511	
4	0	0	0	0	509	
5	0	0	0	0	508	
6	0	0	0	0	508	
7	0	0	0	0	511	
8	0	0	0	0	509	
9	0	0	0	0	512	
10	0	0	0	0	508	
11	0	0	0	0	508	
12	0	0	0	0	509	
13	0	0	0	0	508	
14	0	0	0	0	507	
15	0	0	0	0	504	
0	0	0	0	0	509	
1	0	0	0	0	510	
2	0	0	0	0	509	
3	0	0	0	0	508	
4	0	0	0	0	508	
5	0	0	0	0	505	
6	0	0	0	0	505	
7	0	0	0	0	509	
8	0	0	0	0	510	
9	0	0	0	0	508	
10	0	0	0	0	510	
11	0	0	0	0	508	
12	0	0	0	0	508	
13	0	0	0	0	510	
14	0	0	0	0	511	
15	0	0	0	0	511	
0	0	0	0	0	509	
1	0	0	0	0	506	
2	0	0	0	0	502	
3	0	0	0	0	502	
4	0	0	0	0	504	
5	0	0	0	0	502	
6	0	0	0	0	505	
7	0	0	0	0	505	
8	0	0	0	0	509	
9	0	0	0	0	509	
10	0	0	0	0	508	
11	0	0	0	0	509	
12	0	0	0	0	509	
13	0	0	0	0	507	
14	0	0	0	0	509	
15	0	0	0	0	509	
0	0	0	0	0	506	
1	0	0	0	0	509	
2	0	0	0	0	509	
3	0	0	0	0	506	
4	0	0	0	0	506	
5	0	0	0	0	508	
6	0	0	0	0	508	
7	0	0	0	0	512	
8	0	0	0	0	509	
9	0	0	0	0	509	
10	0	0	0	0	511	
11	0	0	0	0	508	
12	0	0	0	0	511	
13	0	0	0	0	508	
14	0	0	0	0	506	
15	0	0	0	0	507	
0	0	0	0	0	507	
1	0	0	0	0	508	
2	0	0	0	0	509	
3	0	0	0	0	507	
4	0	0	0	0	511	
5	0	0	0	0	506	
6	0	0	0	0	504	
7	0	0	0	0	507	
8	0	0	0	0	507	
9	0	0	0	0	509	
10	0	0	0	0	511	
11	0	0	0	0	508	
12	0	0	0	0	508	
13	0	0	0	0	508	
14	0	0	0	0	508	
15	0	0	0	0	508	
0	0	0	0	0	508	
1	0	0	0	0	509	
2	0	0	0	0	510	
3	0	0	0	0	510	
4	0	0	0	0	510	
5	0	0	0	0	507	
6	0	0	0	0	509	
7	0	0	0	0	507	
8	0	0	0	0	508	
9	0	0	0	0	509	
10	0	0	0	0	507	
11	0	0	0	0	509	
12	0	0	0	0	508	
13	0	0	0	0	508	
14	0	0	0	0	506	
15	0	0	0	0	506	
0	0	0	0	0	506	
1	0	0	0	0	508	
2	0	0	0	0	507	
3	0	0	0	0	509	
4	0	0	0	0	507	
5	0	0	0	0	509	
6	0	0	0	0	510	
7	0	0	0	0	507	
8	0	0	0	0	508	
9	0	0	0	0	506	
10	0	0	0	0	507	
11	0	0	0	0	507	
12	0	0	0	0	506	
13	0	0	0	0	506	
14	0	0	0	0	508	
15	0	0	0	0	507	
0	0	0	0	0	508	
1	0	0	0	0	507	
2	0	0	0	0	509	
3	0	0	0	0	508	
4	0	0	0	0	507	
5	0	0	0	0	507	
6	0	0	0	0	508	
7	0	0	0	0	506	
8	0	0	0	0	508	
9	0	0	0	0	509	
10	0	0	0	0	508	
11	0	0	0	0	507	
12	0	0	0	0	509	
13	0	0	0	0	507	
14	0	0	0	0	510	
15	0	0	0	0	508	
0	0	0	0	0	508	
1	0	0	0	0	508	
2	0	0	0	0	509	
3	0	0	0	0	509	
4	0	0	0	0	510	
5	0	0	0	0	507	
6	0	0	0	0	507	
7	0	0	0	0	509	
8	0	0	0	0	507	
9	0	0	0	0	509	
10	0	0	0	0	506	
11	0	0	0	0	509	
12	0	0	0	0	507	
13	0	0	0	0	509	
14	0	0	0	0	508	
15	0	0	0	0	508	
0	0	0	0	0	508	
1	0	0	0	0	506	
2	0	0	0	0	505	
3	0	0	0	0	505	
4	0	0	0	0	506	
5	0	0	0	0	509	
6	0	0	0	0	508	
7	0	0	0	0	509	
8	0	0	0	0	508	
9	0	0	0	0	510	
10	0	0	0	0	511	
11	0	0	0	0	507	
12	0	0	0	0	508	
13	0	0	0	0	509	
14	0	0	0	0	508	
15	0	0	0	0	508	
0	0	0	0	0	509	
1	0	0	0	0	507	
2	0	0	0	0	507	
3	0	0	0	0	510	
4	0	0	0	0	508	
5	0	0	0	0	507	
6	0	0	0	0	508	
7	0	0	0	0	511	
8	0	0	0	0	508	
9	0	0	0	0	507	
10	0	0	0	0	507	
11	0	0	0	0	508	
12	0	0	0	0	508	
13	0	0	0	0	508	
14	0	0	0	0	508	
15	0	0	0	0	511	
0	0	0	0	0	508	
1	0	0	0	0	507	
2	0	0	0	0	506	
3	0	0	0	0	508	
4	0	0	0	0	506	
5	0	0	0	0	507	
6	0	0	0	0	507	
7	0	0	0	0	506	
8	0	0	0	0	508	
9	0	0	0	0	507	
10	0	0	0	0	507	
11	0	0	0	0	508	
12	0	0	0	0	510	
13	0	0	0	0	508	
14	0	0	0	0	509	
15	0	0	0	0	508	
0	0	0	0	0	508	
1	0	0	0	0	508	
2	0	0	0	0	509	
3	0	0	0	0	507	
4	0	0	0	0	504	
5	0	0	0	0	509	
6	0	0	0	0	508	
7	0	0	0	0	510	
8	0	0	0	0	509	
9	0	0	0	0	507	
10	0	0	0	0	509	
11	0	0	0	0	505	
12	0	0	0	0	511	
13	0	0	0	0	511	
14	0	0	0	0	508	
15	0	0	0	0	508	
0	0	0	0	0	508	
1	0	0	0	0	510	
2	0	0	0	0	506	
3	0	0	0	0	507	
4	0	0	0	0	507	
5	0	0	0	0	507	
6	0	0	0	0	504	
7	0	0	0	0	504	
8	0	0	0	0	505	
9	0	0	0	0	508	
10	0	0	0	0	508	
11	0	0	0	0	508	
12	0	0	0	0	508	
13	0	0	0	0	511	
14	0	0	0	0	512	
15	0	0	0	0	510	
0	0	0	0	0	508	
1	0	0	0	0	508	
2	0	0	0	0	509	
3	0	0	0	0	507	
4	0	0	0	0	506	
5	0	0	0	0	509	
6	0	0	0	0	510	
7	0	0	0	0	509	
8	0	0	0	0	507	
9	0	0	0	0	508	
10	0	0	0	0	507	
11	0	0	0	0	504	
12	0	0	0	0	503	
13	0	0	0	0	503	
14	0	0	0	0	504	
15	0	0	0	0	508	
0	0	0	0	0	508	
1	0	0	0	0	508	
2	0	0	0	0	508	
3	0	0	0	0	505	
4	0	0	0	0	508	
5	0	0	0	0	510	
6	0	0	0	0	511	
7	0	0	0	0	511	
8	0	0	0	0	510	
9	0	0	0	0	509	
10	0	0	0	0	510	
11	0	0	0	0	509	
12	0	0	0	0	508	
13	0	0	0	0	511	
14	0	0	0	0	508	
15	0	0	0	0	511	
0	0	0	0	0	507	
1	0	0	0	0	508	
2	0	0	0	0	507	
3	0	0	0	0	507	
4	0	0	0	0	510	
5	0	0	0	0	507	
6	0	0	0	0	505	
7	0	0	0	0	508	
8	0	0	0	0	505	
9	0	0	0	0	508	
10	0	0	0	0	511	
11	0	0	0	0	510	
12	0	0	0	0	506	
13	0	0	0	0	505	
14	0	0	0	0	504	
15	0	0	0	0	506	
0	0	0	0	0	505	
1	0	0	0	0	508	
2	0	0	0	0	510	
3	0	0	0	0	509	
4	0	0	0	0	509	
5	0	0	0	0	509	
6	0	0	0	0	510	
7	0	0	0	0	510	
8	0	0	0	0	508	
9	0	0	0	0	507	
10	0	0	0	0	508	
11	0	0	0	0	507	
12	0	0	0	0	507	
13	0	0	0	0	508	
14	0	0	0	0	507	
15	0	0	0	0	508	
0	0	0	0	0	508	
1	0	0	0	0	510	
2	0	0	0	0	508	
3	0	0	0	0	508	
4	0	0	0	0	510	
5	0	0	0	0	511	
6	0	0	0	0	507	
7	0	0	0	0	507	
8	0	0	0	0	506	
9	0	0	0	0	505	
10	0	0	0	0	508	
11	0	0	0	0	508	
12	0	0	0	0	510	
13	0	0	0	0	508	
14	0	0	0	0	508	
15	0	0	0	0	508	
0	0	0	0	0	507	
1	0	0	0	0	508	
2	0	0	0	0	508	
3	0	0	0	0	507	
4	0	0	0	0	509	
5	0	0	0	0	508	
6	0	0	0	0	505	
7	0	0	0	0	507	
8	0	0	0	0	508	
9	0	0	0	0	511	
10	0	0	0	0	510	
11	0	0	0	0	508	
12	0	0	0	0	511	
13	0	0	0	0	509	
14	0	0	0	0	508	
15	0	0	0	0	509	
0	0	0	0	0	509	
1	0	0	0	0	511	
2	0	0	0	0	508	
3	0	0	0	0	506	
4	0	0	0	0	510	
5	0	0	0	0	510	
6	0	0	0	0	508	
7	0	0	0	0	511	
8	0	0	0	0	512	
9	0	0	0	0	512	
10	0	0	0	0	510	
11	0	0	0	0	512	
12	0	0	0	0	511	
13	0	0	0	0	509	
14	0	0	0	0	508	
15	0	0	0	0	510	
0	0	0	0	0	510	
1	0	0	0	0	511	
2	0	0	0	0	511	
3	0	0	0	0	510	
4	0	0	0	0	509	
5	0	0	0	0	509	
6	0	0	0	0	509	
7	0	0	0	0	508	
8	0	0	0	0	507	
9	0	0	0	0	508	
10	0	0	0	0	508	
11	0	0	0	0	511	
12	0	0	0	0	510	
13	0	0	0	0	510	
14	0	0	0	0	508	
15	0	0	0	0	508	
0	0	0	0	0	508	
1	0	0	0	0	509	
2	0	0	0	0	510	
3	0	0	0	0	511	
4	0	0	0	0	510	
5	0	0	0	0	511	
6	0	0	0	0	511	
7	0	0	0	0	513	
8	0	0	0	0	508	
9	0	0	0	0	504	
10	0	0	0	0	508	
11	0	0	0	0	506	
12	0	0	0	0	508	
13	0	0	0	0	508	
14	0	0	0	0	510	
15	0	0	0	0	507	
0	0	0	0	0	504	
1	0	0	0	0	502	
2	0	0	0	0	504	
3	0	0	0	0	504	
4	0	0	0	0	502	
5	0	0	0	0	504	
6	0	0	0	0	501	
7	0	0	0	0	503	
8	0	0	0	0	504	
9	0	0	0	0	505	
10	0	0	0	0	502	
11	0	0	0	0	502	
12	0	0	0	0	502	
13	0	0	0	0	503	
14	0	0	0	0	503	
15	0	0	0	0	501	
0	0	0	0	0	503	
1	0	0	0	0	504	
2	0	0	0	0	504	
3	0	0	0	0	505	
4	0	0	0	0	505	
5	0	0	0	0	507	
6	0	0	0	0	506	
7	0	0	0	0	507	
8	0	0	0	0	507	
9	0	0	0	0	505	
10	0	0	0	0	507	
11	0	0	0	0	507	
12	0	0	0	0	508	
13	0	0	0	0	510	
14	0	0	0	0	510	
15	0	0	0	0	508	
0	0	0	0	0	507	
1	0	0	0	0	509	
2	0	0	0	0	508	
3	0	0	0	0	510	
4	0	0	0	0	511	
5	0	0	0	0	506	
6	0	0	0	0	509	
7	0	0	0	0	510	
8	0	0	0	0	509	
9	0	0	0	0	508	
10	0	0	0	0	508	
11	0	0	0	0	507	
12	0	0	0	0	508	
13	0	0	0	0	507	
14	0	0	0	0	507	
15	0	0	0	0	508	
0	0	0	0	0	508	
1	0	0	0	0	510	
2	0	0	0	0	508	
3	0	0	0	0	510	
4	0	0	0	0	509	
5	0	0	0	0	508	
6	0	0	0	0	507	
7	0	0	0	0	510	
8	0	0	0	0	508	
9	0	0	0	0	509	
10	0	0	0	0	508	
11	0	0	0	0	507	
12	0	0	0	0	508	
13	0	0	0	0	510	
14	0	0	0	0	509	
15	0	0	0	0	508	
0	0	0	0	0	508	
1	0	0	0	0	508	
2	0	0	0	0	506	
3	0	0	0	0	508	
4	0	0	0	0	510	
5	0	0	0	0	510	
6	0	0	0	0	508	
7	0	0	0	0	508	
8	0	0	0	0	506	
9	0	0	0	0	509	
10	0	0	0	0	508	
11	0	0	0	0	507	
12	0	0	0	0	508	
13	0	0	0	0	505	
14	0	0	0	0	508	
15	0	0	0	0	506	
0	0	0	0	0	506	
1	0	0	0	0	507	
2	0	0	0	0	505	
3	0	0	0	0	508	
4	0	0	0	0	508	
5	0	0	0	0	508	
6	0	0	0	0	510	
7	0	0	0	0	506	
8	0	0	0	0	508	
9	0	0	0	0	508	
10	0	0	0	0	505	
11	0	0	0	0	507	
12	0	0	0	0	506	
13	0	0	0	0	507	
14	0	0	0	0	508	
15	0	0	0	0	507	
0	0	0	0	0	505	
1	0	0	0	0	507	
2	0	0	0	0	507	
3	0	0	0	0	507	
4	0	0	0	0	509	
5	0	0	0	0	510	
6	0	0	0	0	509	
7	0	0	0	0	507	
8	0	0	0	0	508	
9	0	0	0	0	505	
10	0	0	0	0	506	
11	0	0	0	0	507	
12	0	0	0	0	506	
13	0	0	0	0	507	
14	0	0	0	0	509	
15	0	0	0	0	506	
0	0	0	0	0	507	
1	0	0	0	0	511	
2	0	0	0	0	511	
3	0	0	0	0	510	
4	0	0	0	0	507	
5	0	0	0	0	505	
6	0	0	0	0	509	
7	0	0	0	0	508	
8	0	0	0	0	508	
9	0	0	0	0	508	
10	0	0	0	0	508	
11	0	0	0	0	509	
12	0	0	0	0	510	
13	0	0	0	0	510	
14	0	0	0	0	509	
15	0	0	0	0	511	
0	0	0	0	0	509	
1	0	0	0	0	508	
2	0	0	0	0	507	
3	0	0	0	0	505	
4	0	0	0	0	508	
5	0	0	0	0	508	
6	0	0	0	0	508	
7	0	0	0	0	508	
8	0	0	0	0	505	
9	0	0	0	0	508	
10	0	0	0	0	509	
11	0	0	0	0	508	
12	0	0	0	0	510	
13	0	0	0	0	510	
14	0	0	0	0	509	
15	0	0	0	0	507	
0	0	0	0	0	506	
1	0	0	0	0	508	
2	0	0	0	0	509	
3	0	0	0	0	508	
4	0	0	0	0	507	
5	0	0	0	0	509	
6	0	0	0	0	507	
7	0	0	0	0	509	
8	0	0	0	0	507	
9	0	0	0	0	508	
10	0	0	0	0	509	
11	0	0	0	0	508	
12	0	0	0	0	509	
13	0	0	0	0	508	
14	0	0	0	0	507	
15	0	0	0	0	510	
0	0	0	0	0	507	
1	0	0	0	0	508	
2	0	0	0	0	510	
3	0	0	0	0	509	
4	0	0	0	0	508	
5	0	0	0	0	509	
6	0	0	0	0	510	
7	0	0	0	0	508	
8	0	0	0	0	507	
9	0	0	0	0	508	
10	0	0	0	0	507	
11	0	0	0	0	506	
12	0	0	0	0	507	
13	0	0	0	0	508	
14	0	0	0	0	509	
15	0	0	0	0	508	
0	0	0	0	0	507	
1	0	0	0	0	504	
2	0	0	0	0	505	
3	0	0	0	0	505	
4	0	0	0	0	505	
5	0	0	0	0	510	
6	0	0	0	0	508	
7	0	0	0	0	505	
8	0	0	0	0	508	
9	0	0	0	0	509	
10	0	0	0	0	511	
11	0	0	0	0	511	
12	0	0	0	0	509	
13	0	0	0	0	508	
14	0	0	0	0	509	
15	0	0	0	0	507	
0	0	0	0	0	505	
1	0	0	0	0	507	
2	0	0	0	0	506	
3	0	0	0	0	507	
4	0	0	0	0	510	
5	0	0	0	0	510	
6	0	0	0	0	511	
7	0	0	0	0	509	
8	0	0	0	0	508	
9	0	0	0	0	509	
10	0	0	0	0	509	
11	0	0	0	0	507	
12	0	0	0	0	507	
13	0	0	0	0	508	
14	0	0	0	0	508	
15	0	0	0	0	508	
0	0	0	0	0	508	
1	0	0	0	0	508	
2	0	0	0	0	506	
3	0	0	0	0	509	
4	0	0	0	0	506	
5	0	0	0	0	506	
6	0	0	0	0	507	
7	0	0	0	0	507	
8	0	0	0	0	508	
9	0	0	0	0	508	
10	0	0	0	0	509	
11	0	0	0	0	513	
12	0	0	0	0	509	
13	0	0	0	0	507	
14	0	0	0	0	506	
15	0	0	0	0	507	
0	0	0	0	0	504	
1	0	0	0	0	505	
2	0	0	0	0	508	
3	0	0	0	0	508	
4	0	0	0	0	508	
5	0	0	0	0	504	
6	0	0	0	0	504	
7	0	0	0	0	504	
8	0	0	0	0	508	
9	0	0	0	0	508	
10	0	0	0	0	507	
11	0	0	0	0	506	
12	0	0	0	0	507	
13	0	0	0	0	507	
14	0	0	0	0	506	
15	0	0	0	0	507	
0	0	0	0	0	505	
1	0	0	0	0	507	
2	0	0	0	0	506	
3	0	0	0	0	505	
4	0	0	0	0	506	
5	0	0	0	0	507	
6	0	0	0	0	508	
7	0	0	0	0	505	
8	0	0	0	0	508	
9	0	0	0	0	508	
10	0	0	0	0	505	
11	0	0	0	0	504	
12	0	0	0	0	505	
13	0	0	0	0	504	
14	0	0	0	0	506	
15	0	0	0	0	505	
0	0	0	0	0	507	
1	0	0	0	0	504	
2	0	0	0	0	504	
3	0	0	0	0	504	
4	0	0	0	0	505	
5	0	0	0	0	506	
6	0	0	0	0	504	
7	0	0	0	0	504	
8	0	0	0	0	507	
9	0	0	0	0	507	
10	0	0	0	0	507	
11	0	0	0	0	506	
12	0	0	0	0	504	
13	0	0	0	0	508	
14	0	0	0	0	509	
15	0	0	0	0	505	
0	0	0	0	0	505	
1	0	0	0	0	504	
2	0	0	0	0	505	
3	0	0	0	0	504	
4	0	0	0	0	505	
5	0	0	0	0	506	
6	0	0	0	0	506	
7	0	0	0	0	506	
8	0	0	0	0	506	
9	0	0	0	0	507	
10	0	0	0	0	506	
11	0	0	0	0	509	
12	0	0	0	0	510	
13	0	0	0	0	514	
14	0	0	0	0	516	
15	0	0	0	0	516	
0	0	0	0	0	516	
1	0	0	0	0	518	
2	0	0	0	0	518	
3	0	0	0	0	516	
4	0	0	0	0	516	
5	0	0	0	0	512	
6	0	0	0	0	515	
7	0	0	0	0	512	
8	0	0	0	0	512	
9	0	0	0	0	513	
10	0	0	0	0	512	
11	0	0	0	0	510	
12	0	0	0	0	510	
13	0	0	0	0	510	
14	0	0	0	0	508	
15	0	0	0	0	509	
0	0	0	0	0	510	
1	0	0	0	0	508	
2	0	0	0	0	508	
3	0	0	0	0	509	
4	0	0	0	0	507	
5	0	0	0	0	508	
6	0	0	0	0	507	
7	0	0	0	0	506	
8	0	0	0	0	506	
9	0	0	0	0	507	
10	0	0	0	0	507	
11	0	0	0	0	508	
12	0	0	0	0	510	
13	0	0	0	0	508	
14	0	0	0	0	509	
15	0	0	0	0	507	
0	0	0	0	0	507	
1	0	0	0	0	507	
2	0	0	0	0	506	
3	0	0	0	0	505	
4	0	0	0	0	505	
5	0	0	0	0	506	
6	0	0	0	0	508	
7	0	0	0	0	508	
8	0	0	0	0	506	
9	0	0	0	0	508	
10	0	0	0	0	506	
11	0	0	0	0	509	
12	0	0	0	0	505	
13	0	0	0	0	508	
14	0	0	0	0	508	
15	0	0	0	0	506	
0	0	0	0	0	510	
1	0	0	0	0	509	
2	0	0	0	0	509	
3	0	0	0	0	509	
4	0	0	0	0	507	
5	0	0	0	0	510	
6	0	0	0	0	508	
7	0	0	0	0	508	
8	0	0	0	0	508	
9	0	0	0	0	507	
10	0	0	0	0	508	
11	0	0	0	0	507	
12	0	0	0	0	508	
13	0	0	0	0	508	
14	0	0	0	0	510	
15	0	0	0	0	508	
0	0	0	0	0	508	
1	0	0	0	0	508	
2	0	0	0	0	511	
3	0	0	0	0	509	
4	0	0	0	0	510	
5	0	0	0	0	507	
6	0	0	0	0	507	
7	0	0	0	0	508	
8	0	0	0	0	512	
9	0	0	0	0	509	
10	0	0	0	0	509	
11	0	0	0	0	512	
12	0	0	0	0	508	
13	0	0	0	0	508	
14	0	0	0	0	506	
15	0	0	0	0	507	
0	0	0	0	0	509	
1	0	0	0	0	510	
2	0	0	0	0	508	
3	0	0	0	0	506	
4	0	0	0	0	508	
5	0	0	0	0	507	
6	0	0	0	0	508	
7	0	0	0	0	508	
8	0	0	0	0	508	
9	0	0	0	0	506	
10	0	0	0	0	507	
11	0	0	0	0	508	
12	0	0	0	0	508	
13	0	0	0	0	509	
14	0	0	0	0	509	
15	0	0	0	0	506	
0	0	0	0	0	507	
1	0	0	0	0	506	
2	0	0	0	0	507	
3	0	0	0	0	507	
4	0	0	0	0	507	
5	0	0	0	0	508	
6	0	0	0	0	505	
7	0	0	0	0	508	
8	0	0	0	0	507	
9	0	0	0	0	504	
10	0	0	0	0	504	
11	0	0	0	0	505	
12	0	0	0	0	506	
13	0	0	0	0	507	
14	0	0	0	0	508	
15	0	0	0	0	507	
0	0	0	0	0	507	
1	0	0	0	0	510	
2	0	0	0	0	511	
3	0	0	0	0	510	
4	0	0	0	0	509	
5	0	0	0	0	511	
6	0	0	0	0	510	
7	0	0	0	0	509	
8	0	0	0	0	509	
9	0	0	0	0	509	
10	0	0	0	0	509	
11	0	0	0	0	507	
12	0	0	0	0	508	
13	0	0	0	0	507	
14	0	0	0	0	507	
15	0	0	0	0	509	
0	0	0	0	0	509	
1	0	0	0	0	507	
2	0	0	0	0	506	
3	0	0	0	0	507	
4	0	0	0	0	510	
5	0	0	0	0	510	
6	0	0	0	0	508	
7	0	0	0	0	510	
8	0	0	0	0	508	
9	0	0	0	0	509	
10	0	0	0	0	509	
11	0	0	0	0	510	
12	0	0	0	0	513	
13	0	0	0	0	510	
14	0	0	0	0	508	
15	0	0	0	0	511	
0	0	0	0	0	512	
1	0	0	0	0	512	
2	0	0	0	0	507	
3	0	0	0	0	500	
4	0	0	0	0	503	
5	0	0	0	0	505	
6	0	0	0	0	501	
7	0	0	0	0	500	
8	0	0	0	0	501	
9	0	0	0	0	504	
10	0	0	0	0	506	
11	0	0	0	0	508	
12	0	0	0	0	508	
13	0	0	0	0	508	
14	0	0	0	0	509	
15	0	0	0	0	508	
0	0	0	0	0	508	
1	0	0	0	0	509	
2	0	0	0	0	509	
3	0	0	0	0	509	
4	0	0	0	0	510	
5	0	0	0	0	510	
6	0	0	0	0	510	
7	0	0	0	0	510	
8	0	0	0	0	510	
9	0	0	0	0	510	
10	0	0	0	0	510	
11	0	0	0	0	511	
12	0	0	0	0	510	
13	0	0	0	0	509	
14	0	0	0	0	510	
15	0	0	0	0	508	
0	0	0	0	0	508	
1	0	0	0	0	507	
2	0	0	0	0	504	
3	0	0	0	0	507	
4	0	0	0	0	507	
5	0	0	0	0	509	
6	0	0	0	0	508	
7	0	0	0	0	511	
8	0	0	0	0	511	
9	0	0	0	0	509	
10	0	0	0	0	510	
11	0	0	0	0	507	
12	0	0	0	0	508	
13	0	0	0	0	507	
14	0	0	0	0	507	
15	0	0	0	0	507	
0	0	0	0	0	506	
1	0	0	0	0	507	
2	0	0	0	0	508	
3	0	0	0	0	508	
4	0	0	0	0	508	
5	0	0	0	0	507	
6	0	0	0	0	508	
7	0	0	0	0	510	
8	0	0	0	0	511	
9	0	0	0	0	508	
10	0	0	0	0	506	
11	0	0	0	0	510	
12	0	0	0	0	510	
13	0	0	0	0	509	
14	0	0	0	0	510	
15	0	0	0	0	512	
0	0	0	0	0	510	
1	0	0	0	0	503	
2	0	0	0	0	502	
3	0	0	0	0	505	
4	0	0	0	0	508	
5	0	0	0	0	504	
6	0	0	0	0	506	
7	0	0	0	0	504	
8	0	0	0	0	508	
9	0	0	0	0	502	
10	0	0	0	0	502	
11	0	0	0	0	505	
12	0	0	0	0	509	
13	0	0	0	0	508	
14	0	0	0	0	508	
15	0	0	0	0	511	
0	0	0	0	0	508	
1	0	0	0	0	510	
2	0	0	0	0	508	
3	0	0	0	0	508	
4	0	0	0	0	512	
5	0	0	0	0	509	
6	0	0	0	0	509	
7	0	0	0	0	508	
8	0	0	0	0	509	
9	0	0	0	0	508	
10	0	0	0	0	507	
11	0	0	0	0	508	
12	0	0	0	0	507	
13	0	0	0	0	507	
14	0	0	0	0	506	
15	0	0	0	0	507	
0	0	0	0	0	509	
1	0	0	0	0	506	
2	0	0	0	0	507	
3	0	0	0	0	509	
4	0	0	0	0	508	
5	0	0	0	0	507	
6	0	0	0	0	507	
7	0	0	0	0	509	
8	0	0	0	0	505	
9	0	0	0	0	507	
10	0	0	0	0	508	
11	0	0	0	0	508	
12	0	0	0	0	508	
13	0	0	0	0	507	
14	0	0	0	0	510	
15	0	0	0	0	506	
0	0	0	0	0	507	
1	0	0	0	0	507	
2	0	0	0	0	510	
3	0	0	0	0	511	
4	0	0	0	0	510	
5	0	0	0	0	510	
6	0	0	0	0	508	
7	0	0	0	0	508	
8	0	0	0	0	509	
9	0	0	0	0	508	
10	0	0	0	0	507	
11	0	0	0	0	509	
12	0	0	0	0	509	
13	0	0	0	0	508	
14	0	0	0	0	505	
15	0	0	0	0	504	
0	0	0	0	0	505	
1	0	0	0	0	504	
2	0	0	0	0	508	
3	0	0	0	0	507	
4	0	0	0	0	508	
5	0	0	0	0	510	
6	0	0	0	0	516	
7	0	0	0	0	508	
8	0	0	0	0	505	
9	0	0	0	0	499	
10	0	0	0	0	499	
11	0	0	0	0	502	
12	0	0	0	0	511	
13	0	0	0	0	515	
14	0	0	0	0	511	
15	0	0	0	0	505	
0	0	0	0	0	504	
1	0	0	0	0	513	
2	0	0	0	0	515	
3	0	0	0	0	511	
4	0	0	0	0	510	
5	0	0	0	0	507	
6	0	0	0	0	507	
7	0	0	0	0	508	
8	0	0	0	0	508	
9	0	0	0	0	505	
10	0	0	0	0	502	
11	0	0	0	0	501	
12	0	0	0	0	504	
13	0	0	0	0	505	
14	0	0	0	0	504	
15	0	0	0	0	512	
0	0	0	0	0	515	
1	0	0	0	0	509	
2	0	0	0	0	504	
3	0	0	0	0	507	
4	0	0	0	0	515	
5	0	0	0	0	513	
6	0	0	0	0	501	
7	0	0	0	0	496	
8	0	0	0	0	495	
9	0	0	0	0	503	
10	0	0	0	0	504	
11	0	0	0	0	507	
12	0	0	0	0	507	
13	0	0	0	0	511	
14	0	0	0	0	515	
15	0	0	0	0	516	
0	0	0	0	0	513	
1	0	0	0	0	510	
2	0	0	0	0	508	
3	0	0	0	0	509	
4	0	0	0	0	508	
5	0	0	0	0	507	
6	0	0	0	0	509	
7	0	0	0	0	508	
8	0	0	0	0	508	
9	0	0	0	0	509	
10	0	0	0	0	507	
11	0	0	0	0	507	
12	0	0	0	0	507	
13	0	0	0	0	510	
14	0	0	0	0	511	
15	0	0	0	0	510	
0	0	0	0	0	509	
1	0	0	0	0	507	
2	0	0	0	0	506	
3	0	0	0	0	508	
4	0	0	0	0	505	
5	0	0	0	0	507	
6	0	0	0	0	508	
7	0	0	0	0	506	
8	0	0	0	0	508	
9	0	0	0	0	509	
10	0	0	0	0	506	
11	0	0	0	0	510	
12	0	0	0	0	510	
13	0	0	0	0	507	
14	0	0	0	0	504	
15	0	0	0	0	508	
0	0	0	0	0	506	
1	0	0	0	0	507	
2	0	0	0	0	510	
3	0	0	0	0	508	
4	0	0	0	0	507	
5	0	0	0	0	508	
6	0	0	0	0	509	
7	0	0	0	0	509	
8	0	0	0	0	508	
9	0	0	0	0	506	
10	0	0	0	0	506	
11	0	0	0	0	508	
12	0	0	0	0	510	
13	0	0	0	0	508	
14	0	0	0	0	509	
15	0	0	0	0	507	
0	0	0	0	0	508	
1	0	0	0	0	510	
2	0	0	0	0	510	
3	0	0	0	0	509	
4	0	0	0	0	509	
5	0	0	0	0	508	
6	0	0	0	0	505	
7	0	0	0	0	506	
8	0	0	0	0	507	
9	0	0	0	0	507	
10	0	0	0	0	505	
11	0	0	0	0	507	
12	0	0	0	0	506	
13	0	0	0	0	508	
14	0	0	0	0	508	
15	0	0	0	0	508	
0	0	0	0	0	507	
1	0	0	0	0	509	
2	0	0	0	0	509	
3	0	0	0	0	508	
4	0	0	0	0	506	
5	0	0	0	0	506	
6	0	0	0	0	503	
7	0	0	0	0	505	
8	0	0	0	0	508	
9	0	0	0	0	511	
10	0	0	0	0	511	
11	0	0	0	0	508	
12	0	0	0	0	508	
13	0	0	0	0	504	
14	0	0	0	0	506	
15	0	0	0	0	505	
0	0	0	0	0	510	
1	0	0	0	0	507	
2	0	0	0	0	504	
3	0	0	0	0	507	
4	0	0	0	0	509	
5	0	0	0	0	508	
6	0	0	0	0	505	
7	0	0	0	0	507	
8	0	0	0	0	508	
9	0	0	0	0	507	
10	0	0	0	0	508	
11	0	0	0	0	506	
12	0	0	0	0	508	
13	0	0	0	0	509	
14	0	0	0	0	508	
15	0	0	0	0	507	
0	0	0	0	0	508	
1	0	0	0	0	510	
2	0	0	0	0	508	
3	0	0	0	0	510	
4	0	0	0	0	507	
5	0	0	0	0	507	
6	0	0	0	0	508	
7	0	0	0	0	508	
8	0	0	0	0	505	
9	0	0	0	0	505	
10	0	0	0	0	507	
11	0	0	0	0	509	
12	0	0	0	0	508	
13	0	0	0	0	510	
14	0	0	0	0	512	
15	0	0	0	0	510	
0	0	0	0	0	510	
1	0	0	0	0	507	
2	0	0	0	0	507	
3	0	0	0	0	507	
4	0	0	0	0	508	
5	0	0	0	0	509	
6	0	0	0	0	510	
7	0	0	0	0	508	
8	0	0	0	0	507	
9	0	0	0	0	506	
10	0	0	0	0	508	
11	0	0	0	0	508	
12	0	0	0	0	508	
13	0	0	0	0	508	
14	0	0	0	0	507	
15	0	0	0	0	509	
0	0	0	0	0	509	
1	0	0	0	0	506	
2	0	0	0	0	508	
3	0	0	0	0	507	
4	0	0	0	0	505	
5	0	0	0	0	510	
6	0	0	0	0	511	
7	0	0	0	0	510	
8	0	0	0	0	509	
9	0	0	0	0	510	
10	0	0	0	0	510	
11	0	0	0	0	507	
12	0	0	0	0	505	
13	0	0	0	0	508	
14	0	0	0	0	509	
15	0	0	0	0	509	
0	0	0	0	0	509	
1	0	0	0	0	508	
2	0	0	0	0	507	
3	0	0	0	0	511	
4	0	0	0	0	510	
5	0	0	0	0	510	
6	0	0	0	0	513	
7	0	0	0	0	510	
8	0	0	0	0	510	
9	0	0	0	0	503	
10	0	0	0	0	498	
11	0	0	0	0	499	
12	0	0	0	0	501	
13	0	0	0	0	504	
14	0	0	0	0	506	
15	0	0	0	0	506	
0	0	0	0	0	508	
1	0	0	0	0	508	
2	0	0	0	0	510	
3	0	0	0	0	518	
4	0	0	0	0	522	
5	0	0	0	0	520	
6	0	0	0	0	520	
7	0	0	0	0	517	
8	0	0	0	0	504	
9	0	0	0	0	500	
10	0	0	0	0	489	
11	0	0	0	0	504	
12	0	0	0	0	502	
13	0	0	0	0	496	
14	0	0	0	0	500	
15	0	0	0	0	508	
0	0	0	0	0	508	
1	0	0	0	0	508	
2	0	0	0	0	508	
3	0	0	0	0	510	
4	0	0	0	0	515	
5	0	0	0	0	520	
6	0	0	0	0	512	
7	0	0	0	0	509	
8	0	0	0	0	511	
9	0	0	0	0	506	
10	0	0	0	0	504	
11	0	0	0	0	507	
12	0	0	0	0	502	
13	0	0	0	0	500	
14	0	0	0	0	497	
15	0	0	0	0	495	
0	0	0	0	0	498	
1	0	0	0	0	495	
2	0	0	0	0	502	
3	0	0	0	0	514	
4	0	0	0	0	519	
5	0	0	0	0	530	
6	0	0	0	0	546	
7	0	0	0	0	543	
8	0	0	0	0	522	
9	0	0	0	0	506	
10	0	0	0	0	501	
11	0	0	0	0	503	
12	0	0	0	0	505	
13	0	0	0	0	500	
14	0	0	0	0	503	
15	0	0	0	0	505	
0	0	0	0	0	505	
1	0	0	0	0	503	
2	0	0	0	0	503	
3	0	0	0	0	506	
4	0	0	0	0	505	
5	0	0	0	0	502	
6	0	0	0	0	504	
7	0	0	0	0	506	
8	0	0	0	0	505	
9	0	0	0	0	507	
10	0	0	0	0	505	
11	0	0	0	0	507	
12	0	0	0	0	504	
13	0	0	0	0	503	
14	0	0	0	0	511	
15	0	0	0	0	512	
0	0	0	0	0	506	
1	0	0	0	0	500	
2	0	0	0	0	505	
3	0	0	0	0	515	
4	0	0	0	0	514	
5	0	0	0	0	508	
6	0	0	0	0	513	
7	0	0	0	0	511	
8	0	0	0	0	507	
9	0	0	0	0	507	
10	0	0	0	0	508	
11	0	0	0	0	511	
12	0	0	0	0	510	
13	0	0	0	0	499	
14	0	0	0	0	497	
15	0	0	0	0	497	
0	0	0	0	0	498	
1	0	0	0	0	507	
2	0	0	0	0	502	
3	0	0	0	0	500	
4	0	0	0	0	495	
5	0	0	0	0	500	
6	0	0	0	0	516	
7	0	0	0	0	516	
8	0	0	0	0	517	
9	0	0	0	0	527	
10	0	0	0	0	536	
11	0	0	0	0	524	
12	0	0	0	0	520	
13	0	0	0	0	525	
14	0	0	0	0	521	
15	0	0	0	0	519	
0	0	0	0	0	520	
1	0	0	0	0	509	
2	0	0	0	0	496	
3	0	0	0	0	486	
4	0	0	0	0	489	
5	0	0	0	0	494	
6	0	0	0	0	497	
7	0	0	0	0	502	
8	0	0	0	0	502	
9	0	0	0	0	498	
10	0	0	0	0	501	
11	0	0	0	0	504	
12	0	0	0	0	510	
13	0	0	0	0	506	
14	0	0	0	0	503	
15	0	0	0	0	506	
0	0	0	0	0	508	
1	0	0	0	0	507	
2	0	0	0	0	511	
3	0	0	0	0	508	
4	0	0	0	0	507	
5	0	0	0	0	509	
6	0	0	0	0	516	
7	0	0	0	0	511	
8	0	0	0	0	500	
9	0	0	0	0	487	
10	0	0	0	0	480	
11	0	0	0	0	481	
12	0	0	0	0	478	
13	0	0	0	0	475	
14	0	0	0	0	478	
15	0	0	0	0	488	
0	0	0	0	0	511	
1	0	0	0	0	541	
2	0	0	0	0	542	
3	0	0	0	0	520	
4	0	0	0	0	511	
5	0	0	0	0	525	
6	0	0	0	0	526	
7	0	0	0	0	527	
8	0	0	0	0	523	
9	0	0	0	0	517	
10	0	0	0	0	527	
11	0	0	0	0	545	
12	0	0	0	0	549	
13	0	0	0	0	535	
14	0	0	0	0	524	
15	0	0	0	0	529	
0	0	0	0	0	527	
1	0	0	0	0	514	
2	0	0	0	0	514	
3	0	0	0	0	519	
4	0	0	0	0	519	
5	0	0	0	0	508	
6	0	0	0	0	501	
7	0	0	0	0	489	
8	0	0	0	0	472	
9	0	0	0	0	466	
10	0	0	0	0	472	
11	0	0	0	0	469	
12	0	0	0	0	471	
13	0	0	0	0	470	
14	0	0	0	0	470	
15	0	0	0	0	494	
0	0	0	0	0	527	
1	0	0	0	0	523	
2	0	0	0	0	550	
3	0	0	0	0	582	
4	0	0	0	0	589	
5	0	0	0	0	575	
6	0	0	0	0	550	
7	0	0	0	0	517	
8	0	0	0	0	502	
9	0	0	0	0	483	
10	0	0	0	0	480	
11	0	0	0	0	482	
12	0	0	0	0	490	
13	0	0	0	0	481	
14	0	0	0	0	485	
15	0	0	0	0	494	
0	0	0	0	0	493	
1	0	0	0	0	486	
2	0	0	0	0	489	
3	0	0	0	0	499	
4	0	0	0	0	509	
5	0	0	0	0	507	
6	0	0	0	0	504	
7	0	0	0	0	508	
8	0	0	0	0	500	
9	0	0	0	0	490	
10	0	0	0	0	507	
11	0	0	0	0	513	
12	0	0	0	0	519	
13	0	0	0	0	512	
14	0	0	0	0	500	
15	0	0	0	0	505	
0	0	0	0	0	504	
1	0	0	0	0	502	
2	0	0	0	0	504	
3	0	0	0	0	501	
4	0	0	0	0	506	
5	0	0	0	0	509	
6	0	0	0	0	515	
7	0	0	0	0	517	
8	0	0	0	0	522	
9	0	0	0	0	527	
10	0	0	0	0	524	
11	0	0	0	0	512	
12	0	0	0	0	514	
13	0	0	0	0	527	
14	0	0	0	0	534	
15	0	0	0	0	531	
0	0	0	0	0	524	
1	0	0	0	0	514	
2	0	0	0	0	504	
3	0	0	0	0	485	
4	0	0	0	0	483	
5	0	0	0	0	492	
6	0	0	0	0	494	
7	0	0	0	0	488	
8	0	0	0	0	486	
9	0	0	0	0	493	
10	0	0	0	0	499	
11	0	0	0	0	504	
12	0	0	0	0	510	
13	0	0	0	0	513	
14	0	0	0	0	506	
15	0	0	0	0	518	
0	0	0	0	0	525	
1	0	0	0	0	536	
2	0	0	0	0	534	
3	0	0	0	0	526	
4	0	0	0	0	524	
5	0	0	0	0	513	
6	0	0	0	0	502	
7	0	0	0	0	498	
8	0	0	0	0	499	
9	0	0	0	0	491	
10	0	0	0	0	489	
11	0	0	0	0	492	
12	0	0	0	0	496	
13	0	0	0	0	495	
14	0	0	0	0	489	
15	0	0	0	0	495	
0	0	0	0	0	499	
1	0	0	0	0	498	
2	0	0	0	0	497	
3	0	0	0	0	503	
4	0	0	0	0	516	
5	0	0	0	0	522	
6	0	0	0	0	510	
7	0	0	0	0	501	
8	0	0	0	0	501	
9	0	0	0	0	521	
10	0	0	0	0	539	
11	0	0	0	0	521	
12	0	0	0	0	505	
13	0	0	0	0	507	
14	0	0	0	0	508	
15	0	0	0	0	496	
0	0	0	0	0	502	
1	0	0	0	0	514	
2	0	0	0	0	529	
3	0	0	0	0	519	
4	0	0	0	0	520	
5	0	0	0	0	513	
6	0	0	0	0	502	
7	0	0	0	0	507	
8	0	0	0	0	508	
9	0	0	0	0	497	
10	0	0	0	0	496	
11	0	0	0	0	498	
12	0	0	0	0	486	
13	0	0	0	0	480	
14	0	0	0	0	485	
15	0	0	0	0	493	
0	0	0	0	0	491	
1	0	0	0	0	490	
2	0	0	0	0	508	
3	0	0	0	0	510	
4	0	0	0	0	509	
5	0	0	0	0	518	
6	0	0	0	0	534	
7	0	0	0	0	547	
8	0	0	0	0	528	
9	0	0	0	0	519	
10	0	0	0	0	527	
11	0	0	0	0	531	
12	0	0	0	0	524	
13	0	0	0	0	513	
14	0	0	0	0	521	
15	0	0	0	0	504	
0	0	0	0	0	496	
1	0	0	0	0	487	
2	0	0	0	0	487	
3	0	0	0	0	494	
4	0	0	0	0	504	
5	0	0	0	0	515	
6	0	0	0	0	518	
7	0	0	0	0	517	
8	0	0	0	0	501	
9	0	0	0	0	487	
10	0	0	0	0	486	
11	0	0	0	0	496	
12	0	0	0	0	499	
13	0	0	0	0	496	
14	0	0	0	0	503	
15	0	0	0	0	516	
0	0	0	0	0	522	
1	0	0	0	0	513	
2	0	0	0	0	515	
3	0	0	0	0	515	
4	0	0	0	0	511	
5	0	0	0	0	511	
6	0	0	0	0	519	
7	0	0	0	0	519	
8	0	0	0	0	496	
9	0	0	0	0	505	
10	0	0	0	0	527	
11	0	0	0	0	534	
12	0	0	0	0	512	
13	0	0	0	0	509	
14	0	0	0	0	503	
15	0	0	0	0	496	
0	0	0	0	0	504	
1	0	0	0	0	516	
2	0	0	0	0	544	
3	0	0	0	0	538	
4	0	0	0	0	502	
5	0	0	0	0	512	
6	0	0	0	0	528	
7	0	0	0	0	513	
8	0	0	0	0	492	
9	0	0	0	0	489	
10	0	0	0	0	489	
11	0	0	0	0	497	
12	0	0	0	0	479	
13	0	0	0	0	464	
14	0	0	0	0	464	
15	0	0	0	0	475	
0	0	0	0	0	491	
1	0	0	0	0	504	
2	0	0	0	0	511	
3	0	0	0	0	502	
4	0	0	0	0	525	
5	0	0	0	0	560	
6	0	0	0	0	550	
7	0	0	0	0	536	
8	0	0	0	0	529	
9	0	0	0	0	536	
10	0	0	0	0	543	
11	0	0	0	0	525	
12	0	0	0	0	499	
13	0	0	0	0	494	
14	0	0	0	0	496	
15	0	0	0	0	490	
0	0	0	0	0	479	
1	0	0	0	0	476	
2	0	0	0	0	476	
3	0	0	0	0	480	
4	0	0	0	0	498	
5	0	0	0	0	512	
6	0	0	0	0	523	
7	0	0	0	0	523	
8	0	0	0	0	513	
9	0	0	0	0	527	
10	0	0	0	0	531	
11	0	0	0	0	511	
12	0	0	0	0	495	
13	0	0	0	0	498	
14	0	0	0	0	503	
15	0	0	0	0	508	
0	0	0	0	0	517	
1	0	0	0	0	527	
2	0	0	0	0	504	
3	0	0	0	0	513	
4	0	0	0	0	532	
5	0	0	0	0	521	
6	0	0	0	0	490	
7	0	0	0	0	483	
8	0	0	0	0	486	
9	0	0	0	0	477	
10	0	0	0	0	473	
11	0	0	0	0	483	
12	0	0	0	0	489	
13	0	0	0	0	501	
14	0	0	0	0	506	
15	0	0	0	0	516	
0	0	0	0	0	529	
1	0	0	0	0	525	
2	0	0	0	0	546	
3	0	0	0	0	551	
4	0	0	0	0	544	
5	0	0	0	0	541	
6	0	0	0	0	509	
7	0	0	0	0	481	
8	0	0	0	0	480	
9	0	0	0	0	502	
10	0	0	0	0	524	
11	0	0	0	0	545	
12	0	0	0	0	540	
13	0	0	0	0	522	
14	0	0	0	0	512	
15	0	0	0	0	493	
0	0	0	0	0	484	
1	0	0	0	0	484	
2	0	0	0	0	483	
3	0	0	0	0	496	
4	0	0	0	0	502	
5	0	0	0	0	511	
6	0	0	0	0	497	
7	0	0	0	0	487	
8	0	0	0	0	481	
9	0	0	0	0	485	
10	0	0	0	0	483	
11	0	0	0	0	502	
12	0	0	0	0	512	
13	0	0	0	0	496	
14	0	0	0	0	490	
15	0	0	0	0	495	
0	0	0	0	0	497	
1	0	0	0	0	508	
2	0	0	0	0	508	
3	0	0	0	0	487	
4	0	0	0	0	499	
5	0	0	0	0	533	
6	0	0	0	0	546	
7	0	0	0	0	566	
8	0	0	0	0	564	
9	0	0	0	0	542	
10	0	0	0	0	535	
11	0	0	0	0	551	
12	0	0	0	0	522	
13	0	0	0	0	494	
14	0	0	0	0	496	
15	0	0	0	0	497	
0	0	0	0	0	499	
1	0	0	0	0	498	
2	0	0	0	0	496	
3	0	0	0	0	482	
4	0	0	0	0	478	
5	0	0	0	0	480	
6	0	0	0	0	469	
7	0	0	0	0	465	
8	0	0	0	0	467	
9	0	0	0	0	483	
10	0	0	0	0	512	
11	0	0	0	0	513	
12	0	0	0	0	496	
13	0	0	0	0	498	
14	0	0	0	0	495	
15	0	0	0	0	517	
0	0	0	0	0	536	
1	0	0	0	0	536	
2	0	0	0	0	547	
3	0	0	0	0	554	
4	0	0	0	0	531	
5	0	0	0	0	518	
6	0	0	0	0	530	
7	0	0	0	0	510	
8	0	0	0	0	502	
9	0	0	0	0	520	
10	0	0	0	0	489	
11	0	0	0	0	463	
12	0	0	0	0	474	
13	0	0	0	0	499	
14	0	0	0	0	500	
15	0	0	0	0	480	
0	0	0	0	0	467	
1	0	0	0	0	484	
2	0	0	0	0	524	
3	0	0	0	0	558	
4	0	0	0	0	567	
5	0	0	0	0	551	
6	0	0	0	0	535	
7	0	0	0	0	551	
8	0	0	0	0	560	
9	0	0	0	0	539	
10	0	0	0	0	494	
11	0	0	0	0	494	
12	0	0	0	0	492	
13	0	0	0	0	471	
14	0	0	0	0	480	
15	0	0	0	0	474	
0	0	0	0	0	475	
1	0	0	0	0	472	
2	0	0	0	0	478	
3	0	0	0	0	492	
4	0	0	0	0	512	
5	0	0	0	0	511	
6	0	0	0	0	490	
7	0	0	0	0	512	
8	0	0	0	0	549	
9	0	0	0	0	572	
10	0	0	0	0	579	
11	0	0	0	0	580	
12	0	0	0	0	553	
13	0	0	0	0	522	
14	0	0	0	0	515	
15	0	0	0	0	510	
0	0	0	0	0	495	
1	0	0	0	0	480	
2	0	0	0	0	486	
3	0	0	0	0	492	
4	0	0	0	0	483	
5	0	0	0	0	497	
6	0	0	0	0	519	
7	0	0	0	0	511	
8	0	0	0	0	507	
9	0	0	0	0	491	
10	0	0	0	0	483	
11	0	0	0	0	480	
12	0	0	0	0	483	
13	0	0	0	0	483	
14	0	0	0	0	484	
15	0	0	0	0	486	
0	0	0	0	0	489	
1	0	0	0	0	488	
2	0	0	0	0	492	
3	0	0	0	0	497	
4	0	0	0	0	492	
5	0	0	0	0	487	
6	0	0	0	0	506	
7	0	0	0	0	514	
8	0	0	0	0	524	
9	0	0	0	0	504	
10	0	0	0	0	470	
11	0	0	0	0	489	
12	0	0	0	0	511	
13	0	0	0	0	510	
14	0	0	0	0	510	
15	0	0	0	0	509	
0	0	0	0	0	521	
1	0	0	0	0	547	
2	0	0	0	0	572	
3	0	0	0	0	551	
4	0	0	0	0	515	
5	0	0	0	0	498	
6	0	0	0	0	488	
7	0	0	0	0	465	
8	0	0	0	0	507	
9	0	0	0	0	567	
10	0	0	0	0	572	
11	0	0	0	0	579	
12	0	0	0	0	569	
13	0	0	0	0	529	
14	0	0	0	0	489	
15	0	0	0	0	459	
0	0	0	0	0	455	
1	0	0	0	0	464	
2	0	0	0	0	455	
3	0	0	0	0	465	
4	0	0	0	0	453	
5	0	0	0	0	461	
6	0	0	0	0	511	
7	0	0	0	0	547	
8	0	0	0	0	571	
9	0	0	0	0	568	
10	0	0	0	0	535	
11	0	0	0	0	531	
12	0	0	0	0	528	
13	0	0	0	0	537	
14	0	0	0	0	566	
15	0	0	0	0	544	
0	0	0	0	0	526	
1	0	0	0	0	523	
2	0	0	0	0	502	
3	0	0	0	0	484	
4	0	0	0	0	478	
5	0	0	0	0	478	
6	0	0	0	0	472	
7	0	0	0	0	478	
8	0	0	0	0	493	
9	0	0	0	0	507	
10	0	0	0	0	515	
11	0	0	0	0	512	
12	0	0	0	0	508	
13	0	0	0	0	503	
14	0	0	0	0	508	
15	0	0	0	0	517	
0	0	0	0	0	513	
1	0	0	0	0	515	
2	0	0	0	0	522	
3	0	0	0	0	514	
4	0	0	0	0	505	
5	0	0	0	0	495	
6	0	0	0	0	507	
7	0	0	0	0	503	
8	0	0	0	0	500	
9	0	0	0	0	506	
10	0	0	0	0	519	
11	0	0	0	0	500	
12	0	0	0	0	484	
13	0	0	0	0	486	
14	0	0	0	0	485	
15	0	0	0	0	491	
0	0	0	0	0	492	
1	0	0	0	0	498	
2	0	0	0	0	502	
3	0	0	0	0	503	
4	0	0	0	0	492	
5	0	0	0	0	488	
6	0	0	0	0	483	
7	0	0	0	0	487	
8	0	0	0	0	480	
9	0	0	0	0	492	
10	0	0	0	0	499	
11	0	0	0	0	527	
12	0	0	0	0	550	
13	0	0	0	0	554	
14	0	0	0	0	553	
15	0	0	0	0	521	
0	0	0	0	0	486	
1	0	0	0	0	504	
2	0	0	0	0	534	
3	0	0	0	0	512	
4	0	0	0	0	497	
5	0	0	0	0	494	
6	0	0	0	0	497	
7	0	0	0	0	512	
8	0	0	0	0	490	
9	0	0	0	0	499	
10	0	0	0	0	548	
11	0	0	0	0	567	
12	0	0	0	0	559	
13	0	0	0	0	529	
14	0	0	0	0	521	
15	0	0	0	0	528	
0	0	0	0	0	519	
1	0	0	0	0	496	
2	0	0	0	0	506	
3	0	0	0	0	495	
4	0	0	0	0	430	
5	0	0	0	0	418	
6	0	0	0	0	428	
7	0	0	0	0	455	
8	0	0	0	0	491	
9	0	0	0	0	508	
10	0	0	0	0	503	
11	0	0	0	0	519	
12	0	0	0	0	600	
13	0	0	0	0	613	
14	0	0	0	0	576	
15	0	0	0	0	571	
0	0	0	0	0	563	
1	0	0	0	0	528	
2	0	0	0	0	507	
3	0	0	0	0	525	
4	0	0	0	0	540	
5	0	0	0	0	529	
6	0	0	0	0	488	
7	0	0	0	0	499	
8	0	0	0	0	494	
9	0	0	0	0	479	
10	0	0	0	0	461	
11	0	0	0	0	455	
12	0	0	0	0	459	
13	0	0	0	0	490	
14	0	0	0	0	508	
15	0	0	0	0	518	
0	0	0	0	0	511	
1	0	0	0	0	504	
2	0	0	0	0	508	
3	0	0	0	0	498	
4	0	0	0	0	484	
5	0	0	0	0	480	
6	0	0	0	0	481	
7	0	0	0	0	499	
8	0	0	0	0	525	
9	0	0	0	0	530	
10	0	0	0	0	520	
11	0	0	0	0	502	
12	0	0	0	0	507	
13	0	0	0	0	519	
14	0	0	0	0	528	
15	0	0	0	0	531	
0	0	0	0	0	520	
1	0	0	0	0	511	
2	0	0	0	0	490	
3	0	0	0	0	494	
4	0	0	0	0	504	
5	0	0	0	0	504	
6	0	0	0	0	502	
7	0	0	0	0	502	
8	0	0	0	0	501	
9	0	0	0	0	487	
10	0	0	0	0	481	
11	0	0	0	0	474	
12	0	0	0	0	468	
13	0	0	0	0	467	
14	0	0	0	0	483	
15	0	0	0	0	494	
0	0	0	0	0	481	
1	0	0	0	0	510	
2	0	0	0	0	556	
3	0	0	0	0	551	
4	0	0	0	0	540	
5	0	0	0	0	561	
6	0	0	0	0	542	
7	0	0	0	0	544	
8	0	0	0	0	551	
9	0	0	0	0	531	
10	0	0	0	0	534	
11	0	0	0	0	528	
12	0	0	0	0	503	
13	0	0	0	0	479	
14	0	0	0	0	497	
15	0	0	0	0	510	
0	0	0	0	0	505	
1	0	0	0	0	498	
2	0	0	0	0	505	
3	0	0	0	0	509	
4	0	0	0	0	483	
5	0	0	0	0	482	
6	0	0	0	0	508	
7	0	0	0	0	510	
8	0	0	0	0	478	
9	0	0	0	0	473	
10	0	0	0	0	481	
11	0	0	0	0	480	
12	0	0	0	0	481	
13	0	0	0	0	476	
14	0	0	0	0	478	
15	0	0	0	0	510	
0	0	0	0	0	539	
1	0	0	0	0	565	
2	0	0	0	0	577	
3	0	0	0	0	558	
4	0	0	0	0	554	
5	0	0	0	0	540	
6	0	0	0	0	529	
7	0	0	0	0	521	
8	0	0	0	0	504	
9	0	0	0	0	494	
10	0	0	0	0	462	
11	0	0	0	0	451	
12	0	0	0	0	458	
13	0	0	0	0	489	
14	0	0	0	0	504	
15	0	0	0	0	503	
0	0	0	0	0	518	
1	0	0	0	0	507	
2	0	0	0	0	515	
3	0	0	0	0	544	
4	0	0	0	0	536	
5	0	0	0	0	511	
6	0	0	0	0	472	
7	0	0	0	0	470	
8	0	0	0	0	488	
9	0	0	0	0	498	
10	0	0	0	0	486	
11	0	0	0	0	505	
12	0	0	0	0	550	
13	0	0	0	0	556	
14	0	0	0	0	531	
15	0	0	0	0	529	
0	0	0	0	0	580	
1	0	0	0	0	574	
2	0	0	0	0	552	
3	0	0	0	0	484	
4	0	0	0	0	429	
5	0	0	0	0	385	
6	0	0	0	0	383	
7	0	0	0	0	391	
8	0	0	0	0	372	
9	0	0	0	0	383	
10	0	0	0	0	421	
11	0	0	0	0	492	
12	0	0	0	0	545	
13	0	0	0	0	561	
14	0	0	0	0	545	
15	0	0	0	0	582	
0	0	0	0	0	642	
1	0	0	0	0	681	
2	0	0	0	0	711	
3	0	0	0	0	714	
4	0	0	0	0	693	
5	0	0	0	0	636	
6	0	0	0	0	573	
7	0	0	0	0	489	
8	0	0	0	0	455	
9	0	0	0	0	452	
10	0	0	0	0	454	
11	0	0	0	0	434	
12	0	0	0	0	409	
13	0	0	0	0	403	
14	0	0	0	0	408	
15	0	0	0	0	414	
0	0	0	0	0	424	
1	0	0	0	0	453	
2	0	0	0	0	462	
3	0	0	0	0	461	
4	0	0	0	0	494	
5	0	0	0	0	510	
6	0	0	0	0	530	
7	0	0	0	0	536	
8	0	0	0	0	571	
9	0	0	0	0	584	
10	0	0	0	0	566	
11	0	0	0	0	546	
12	0	0	0	0	501	
13	0	0	0	0	491	
14	0	0	0	0	512	
15	0	0	0	0	494	
0	0	0	0	0	451	
1	0	0	0	0	448	
2	0	0	0	0	472	
3	0	0	0	0	482	
4	0	0	0	0	472	
5	0	0	0	0	474	
6	0	0	0	0	499	
7	0	0	0	0	510	
8	0	0	0	0	530	
9	0	0	0	0	526	
10	0	0	0	0	512	
11	0	0	0	0	477	
12	0	0	0	0	476	
13	0	0	0	0	494	
14	0	0	0	0	495	
15	0	0	0	0	535	
0	0	0	0	0	553	
1	0	0	0	0	514	
2	0	0	0	0	549	
3	0	0	0	0	595	
4	0	0	0	0	607	
5	0	0	0	0	590	
6	0	0	0	0	556	
7	0	0	0	0	532	
8	0	0	0	0	513	
9	0	0	0	0	489	
10	0	0	0	0	474	
11	0	0	0	0	478	
12	0	0	0	0	467	
13	0	0	0	0	461	
14	0	0	0	0	452	
15	0	0	0	0	451	
0	0	0	0	0	427	
1	0	0	0	0	439	
2	0	0	0	0	467	
3	0	0	0	0	480	
4	0	0	0	0	482	
5	0	0	0	0	502	
6	0	0	0	0	509	
7	0	0	0	0	538	
8	0	0	0	0	552	
9	0	0	0	0	569	
10	0	0	0	0	587	
11	0	0	0	0	568	
12	0	0	0	0	515	
13	0	0	0	0	536	
14	0	0	0	0	575	
15	0	0	0	0	551	
0	0	0	0	0	524	
1	0	0	0	0	518	
2	0	0	0	0	520	
3	0	0	0	0	541	
4	0	0	0	0	547	
5	0	0	0	0	515	
6	0	0	0	0	451	
7	0	0	0	0	434	
8	0	0	0	0	414	
9	0	0	0	0	427	
10	0	0	0	0	456	
11	0	0	0	0	464	
12	0	0	0	0	478	
13	0	0	0	0	494	
14	0	0	0	0	566	
15	0	0	0	0	593	
0	0	0	0	0	560	
1	0	0	0	0	541	
2	0	0	0	0	527	
3	0	0	0	0	503	
4	0	0	0	0	477	
5	0	0	0	0	454	
6	0	0	0	0	449	
7	0	0	0	0	487	
8	0	0	0	0	510	
9	0	0	0	0	503	
10	0	0	0	0	505	
11	0	0	0	0	519	
12	0	0	0	0	557	
13	0	0	0	0	598	
14	0	0	0	0	587	
15	0	0	0	0	579	
0	0	0	0	0	579	
1	0	0	0	0	543	
2	0	0	0	0	482	
3	0	0	0	0	455	
4	0	0	0	0	464	
5	0	0	0	0	451	
6	0	0	0	0	448	
7	0	0	0	0	454	
8	0	0	0	0	436	
9	0	0	0	0	434	
10	0	0	0	0	478	
11	0	0	0	0	545	
12	0	0	0	0	554	
13	0	0	0	0	531	
14	0	0	0	0	550	
15	0	0	0	0	559	
0	0	0	0	0	539	
1	0	0	0	0	534	
2	0	0	0	0	543	
3	0	0	0	0	510	
4	0	0	0	0	503	
5	0	0	0	0	515	
6	0	0	0	0	514	
7	0	0	0	0	491	
8	0	0	0	0	482	
9	0	0	0	0	495	
10	0	0	0	0	490	
11	0	0	0	0	486	
12	0	0	0	0	491	
13	0	0	0	0	488	
14	0	0	0	0	495	
15	0	0	0	0	490	
0	0	0	0	0	488	
1	0	0	0	0	496	
2	0	0	0	0	486	
3	0	0	0	0	486	
4	0	0	0	0	489	
5	0	0	0	0	483	
6	0	0	0	0	474	
7	0	0	0	0	482	
8	0	0	0	0	497	
9	0	0	0	0	514	
10	0	0	0	0	542	
11	0	0	0	0	548	
12	0	0	0	0	549	
13	0	0	0	0	558	
14	0	0	0	0	558	
15	0	0	0	0	561	
0	0	0	0	0	534	
1	0	0	0	0	542	
2	0	0	0	0	541	
3	0	0	0	0	540	
4	0	0	0	0	574	
5	0	0	0	0	543	
6	0	0	0	0	494	
7	0	0	0	0	469	
8	0	0	0	0	449	
9	0	0	0	0	414	
10	0	0	0	0	406	
11	0	0	0	0	465	
12	0	0	0	0	529	
13	0	0	0	0	560	
14	0	0	0	0	551	
15	0	0	0	0	542	
0	0	0	0	0	534	
1	0	0	0	0	518	
2	0	0	0	0	495	
3	0	0	0	0	482	
4	0	0	0	0	468	
5	0	0	0	0	464	
6	0	0	0	0	472	
7	0	0	0	0	479	
8	0	0	0	0	506	
9	0	0	0	0	526	
10	0	0	0	0	552	
11	0	0	0	0	562	
12	0	0	0	0	528	
13	0	0	0	0	465	
14	0	0	0	0	428	
15	0	0	0	0	459	
0	0	0	0	0	493	
1	0	0	0	0	514	
2	0	0	0	0	518	
3	0	0	0	0	508	
4	0	0	0	0	510	
5	0	0	0	0	502	
6	0	0	0	0	506	
7	0	0	0	0	551	
8	0	0	0	0	567	
9	0	0	0	0	566	
10	0	0	0	0	558	
11	0	0	0	0	529	
12	0	0	0	0	482	
13	0	0	0	0	476	
14	0	0	0	0	467	
15	0	0	0	0	445	
0	0	0	0	0	437	
1	0	0	0	0	494	
2	0	0	0	0	515	
3	0	0	0	0	520	
4	0	0	0	0	560	
5	0	0	0	0	582	
6	0	0	0	0	537	
7	0	0	0	0	529	
8	0	0	0	0	497	
9	0	0	0	0	492	
10	0	0	0	0	491	
11	0	0	0	0	512	
12	0	0	0	0	524	
13	0	0	0	0	535	
14	0	0	0	0	526	
15	0	0	0	0	514	
0	0	0	0	0	532	
1	0	0	0	0	554	
2	0	0	0	0	546	
3	0	0	0	0	540	
4	0	0	0	0	506	
5	0	0	0	0	489	
6	0	0	0	0	470	
7	0	0	0	0	458	
8	0	0	0	0	411	
9	0	0	0	0	420	
10	0	0	0	0	480	
11	0	0	0	0	475	
12	0	0	0	0	453	
13	0	0	0	0	442	
14	0	0	0	0	418	
15	0	0	0	0	441	
0	0	0	0	0	529	
1	0	0	0	0	625	
2	0	0	0	0	592	
3	0	0	0	0	583	
4	0	0	0	0	634	
5	0	0	0	0	628	
6	0	0	0	0	561	
7	0	0	0	0	533	
8	0	0	0	0	497	
9	0	0	0	0	482	
10	0	0	0	0	518	
11	0	0	0	0	540	
12	0	0	0	0	531	
13	0	0	0	0	496	
14	0	0	0	0	472	
15	0	0	0	0	455	
0	0	0	0	0	450	
1	0	0	0	0	462	
2	0	0	0	0	468	
3	0	0	0	0	456	
4	0	0	0	0	446	
5	0	0	0	0	470	
6	0	0	0	0	499	
7	0	0	0	0	490	
8	0	0	0	0	478	
9	0	0	0	0	487	
10	0	0	0	0	499	
11	0	0	0	0	510	
12	0	0	0	0	516	
13	0	0	0	0	554	
14	0	0	0	0	601	
15	0	0	0	0	627	
0	0	0	0	0	589	
1	0	0	0	0	506	
2	0	0	0	0	451	
3	0	0	0	0	469	
4	0	0	0	0	483	
5	0	0	0	0	476	
6	0	0	0	0	497	
7	0	0	0	0	485	
8	0	0	0	0	495	
9	0	0	0	0	502	
10	0	0	0	0	505	
11	0	0	0	0	532	
12	0	0	0	0	555	
13	0	0	0	0	526	
14	0	0	0	0	527	
15	0	0	0	0	543	
0	0	0	0	0	533	
1	0	0	0	0	516	
2	0	0	0	0	504	
3	0	0	0	0	481	
4	0	0	0	0	471	
5	0	0	0	0	468	
6	0	0	0	0	478	
7	0	0	0	0	498	
8	0	0	0	0	514	
9	0	0	0	0	514	
10	0	0	0	0	508	
11	0	0	0	0	484	
12	0	0	0	0	472	
13	0	0	0	0	480	
14	0	0	0	0	513	
15	0	0	0	0	522	
0	0	0	0	0	496	
1	0	0	0	0	498	
2	0	0	0	0	511	
3	0	0	0	0	506	
4	0	0	0	0	506	
5	0	0	0	0	507	
6	0	0	0	0	541	
7	0	0	0	0	583	
8	0	0	0	0	569	
9	0	0	0	0	495	
10	0	0	0	0	463	
11	0	0	0	0	471	
12	0	0	0	0	487	
13	0	0	0	0	509	
14	0	0	0	0	543	
15	0	0	0	0	548	
0	0	0	0	0	501	
1	0	0	0	0	444	
2	0	0	0	0	480	
3	0	0	0	0	502	
4	0	0	0	0	502	
5	0	0	0	0	505	
6	0	0	0	0	526	
7	0	0	0	0	568	
8	0	0	0	0	610	
9	0	0	0	0	565	
10	0	0	0	0	505	
11	0	0	0	0	507	
12	0	0	0	0	471	
13	0	0	0	0	519	
14	0	0	0	0	541	
15	0	0	0	0	521	
0	0	0	0	0	495	
1	0	0	0	0	469	
2	0	0	0	0	466	
3	0	0	0	0	477	
4	0	0	0	0	481	
5	0	0	0	0	486	
6	0	0	0	0	507	
7	0	0	0	0	482	
8	0	0	0	0	464	
9	0	0	0	0	475	
10	0	0	0	0	532	
11	0	0	0	0	568	
12	0	0	0	0	556	
13	0	0	0	0	563	
14	0	0	0	0	558	
15	0	0	0	0	532	
0	0	0	0	0	513	
1	0	0	0	0	534	
2	0	0	0	0	519	
3	0	0	0	0	485	
4	0	0	0	0	464	
5	0	0	0	0	471	
6	0	0	0	0	443	
7	0	0	0	0	415	
8	0	0	0	0	426	
9	0	0	0	0	454	
10	0	0	0	0	471	
11	0	0	0	0	516	
12	0	0	0	0	532	
13	0	0	0	0	526	
14	0	0	0	0	521	
15	0	0	0	0	550	
0	0	0	0	0	551	
1	0	0	0	0	567	
2	0	0	0	0	571	
3	0	0	0	0	547	
4	0	0	0	0	527	
5	0	0	0	0	500	
6	0	0	0	0	487	
7	0	0	0	0	490	
8	0	0	0	0	487	
9	0	0	0	0	506	
10	0	0	0	0	501	
11	0	0	0	0	495	
12	0	0	0	0	523	
13	0	0	0	0	546	
14	0	0	0	0	579	
15	0	0	0	0	546	
0	0	0	0	0	504	
1	0	0	0	0	486	
2	0	0	0	0	428	
3	0	0	0	0	408	
4	0	0	0	0	428	
5	0	0	0	0	421	
6	0	0	0	0	418	
7	0	0	0	0	490	
8	0	0	0	0	523	
9	0	0	0	0	526	
10	0	0	0	0	566	
11	0	0	0	0	610	
12	0	0	0	0	651	
13	0	0	0	0	608	
14	0	0	0	0	554	
15	0	0	0	0	586	
0	0	0	0	0	572	
1	0	0	0	0	527	
2	0	0	0	0	499	
3	0	0	0	0	482	
4	0	0	0	0	472	
5	0	0	0	0	475	
6	0	0	0	0	482	
7	0	0	0	0	467	
8	0	0	0	0	465	
9	0	0	0	0	453	
10	0	0	0	0	423	
11	0	0	0	0	423	
12	0	0	0	0	438	
13	0	0	0	0	446	
14	0	0	0	0	454	
15	0	0	0	0	458	
0	0	0	0	0	477	
1	0	0	0	0	498	
2	0	0	0	0	553	
3	0	0	0	0	572	
4	0	0	0	0	527	
5	0	0	0	0	537	
6	0	0	0	0	573	
7	0	0	0	0	623	
8	0	0	0	0	634	
9	0	0	0	0	588	
10	0	0	0	0	519	
11	0	0	0	0	490	
12	0	0	0	0	496	
13	0	0	0	0	487	
14	0	0	0	0	466	
15	0	0	0	0	449	
0	0	0	0	0	454	
1	0	0	0	0	469	
2	0	0	0	0	480	
3	0	0	0	0	475	
4	0	0	0	0	517	
5	0	0	0	0	501	
6	0	0	0	0	448	
7	0	0	0	0	452	
8	0	0	0	0	507	
9	0	0	0	0	535	
10	0	0	0	0	578	
11	0	0	0	0	575	
12	0	0	0	0	588	
13	0	0	0	0	617	
14	0	0	0	0	574	
15	0	0	0	0	546	
0	0	0	0	0	521	
1	0	0	0	0	505	
2	0	0	0	0	470	
3	0	0	0	0	480	
4	0	0	0	0	508	
5	0	0	0	0	532	
6	0	0	0	0	519	
7	0	0	0	0	512	
8	0	0	0	0	505	
9	0	0	0	0	509	
10	0	0	0	0	512	
11	0	0	0	0	506	
12	0	0	0	0	509	
13	0	0	0	0	479	
14	0	0	0	0	466	
15	0	0	0	0	448	
0	0	0	0	0	445	
1	0	0	0	0	459	
2	0	0	0	0	472	
3	0	0	0	0	486	
4	0	0	0	0	523	
5	0	0	0	0	569	
6	0	0	0	0	557	
7	0	0	0	0	548	
8	0	0	0	0	512	
9	0	0	0	0	501	
10	0	0	0	0	503	
11	0	0	0	0	516	
12	0	0	0	0	485	
13	0	0	0	0	449	
14	0	0	0	0	420	
15	0	0	0	0	425	
0	0	0	0	0	439	
1	0	0	0	0	460	
2	0	0	0	0	480	
3	0	0	0	0	503	
4	0	0	0	0	545	
5	0	0	0	0	594	
6	0	0	0	0	643	
7	0	0	0	0	632	
8	0	0	0	0	624	
9	0	0	0	0	612	
10	0	0	0	0	548	
11	0	0	0	0	529	
12	0	0	0	0	505	
13	0	0	0	0	457	
14	0	0	0	0	442	
15	0	0	0	0	436	
0	0	0	0	0	404	
1	0	0	0	0	382	
2	0	0	0	0	405	
3	0	0	0	0	466	
4	0	0	0	0	481	
5	0	0	0	0	467	
6	0	0	0	0	512	
7	0	0	0	0	531	
8	0	0	0	0	533	
9	0	0	0	0	536	
10	0	0	0	0	569	
11	0	0	0	0	617	
12	0	0	0	0	566	
13	0	0	0	0	497	
14	0	0	0	0	487	
15	0	0	0	0	519	
0	0	0	0	0	568	
1	0	0	0	0	564	
2	0	0	0	0	496	
3	0	0	0	0	474	
4	0	0	0	0	484	
5	0	0	0	0	476	
6	0	0	0	0	444	
7	0	0	0	0	444	
8	0	0	0	0	447	
9	0	0	0	0	516	
10	0	0	0	0	523	
11	0	0	0	0	489	
12	0	0	0	0	517	
13	0	0	0	0	567	
14	0	0	0	0	637	
15	0	0	0	0	610	
0	0	0	0	0	564	
1	0	0	0	0	537	
2	0	0	0	0	525	
3	0	0	0	0	519	
4	0	0	0	0	507	
5	0	0	0	0	487	
6	0	0	0	0	494	
7	0	0	0	0	509	
8	0	0	0	0	510	
9	0	0	0	0	461	
10	0	0	0	0	452	
11	0	0	0	0	459	
12	0	0	0	0	428	
13	0	0	0	0	413	
14	0	0	0	0	449	
15	0	0	0	0	496	
0	0	0	0	0	541	
1	0	0	0	0	488	
2	0	0	0	0	428	
3	0	0	0	0	461	
4	0	0	0	0	521	
5	0	0	0	0	561	
6	0	0	0	0	599	
7	0	0	0	0	605	
8	0	0	0	0	566	
9	0	0	0	0	519	
10	0	0	0	0	509	
11	0	0	0	0	492	
12	0	0	0	0	472	
13	0	0	0	0	478	
14	0	0	0	0	499	
15	0	0	0	0	543	
0	0	0	0	0	529	
1	0	0	0	0	528	
2	0	0	0	0	538	
3	0	0	0	0	570	
4	0	0	0	0	523	
5	0	0	0	0	489	
6	0	0	0	0	479	
7	0	0	0	0	476	
8	0	0	0	0	493	
9	0	0	0	0	505	
10	0	0	0	0	498	
11	0	0	0	0	496	
12	0	0	0	0	462	
13	0	0	0	0	423	
14	0	0	0	0	478	
15	0	0	0	0	532	
0	0	0	0	0	545	
1	0	0	0	0	569	
2	0	0	0	0	636	
3	0	0	0	0	612	
4	0	0	0	0	573	
5	0	0	0	0	500	
6	0	0	0	0	447	
7	0	0	0	0	482	
8	0	0	0	0	485	
9	0	0	0	0	446	
10	0	0	0	0	448	
11	0	0	0	0	459	
12	0	0	0	0	476	
13	0	0	0	0	474	
14	0	0	0	0	490	
15	0	0	0	0	521	
0	0	0	0	0	562	
1	0	0	0	0	569	
2	0	0	0	0	519	
3	0	0	0	0	453	
4	0	0	0	0	430	
5	0	0	0	0	399	
6	0	0	0	0	415	
7	0	0	0	0	519	
8	0	0	0	0	585	
9	0	0	0	0	543	
10	0	0	0	0	525	
11	0	0	0	0	530	
12	0	0	0	0	523	
13	0	0	0	0	527	
14	0	0	0	0	559	
15	0	0	0	0	593	
0	0	0	0	0	618	
1	0	0	0	0	603	
2	0	0	0	0	570	
3	0	0	0	0	560	
4	0	0	0	0	514	
5	0	0	0	0	492	
6	0	0	0	0	460	
7	0	0	0	0	460	
8	0	0	0	0	482	
9	0	0	0	0	494	
10	0	0	0	0	454	
11	0	0	0	0	438	
12	0	0	0	0	414	
13	0	0	0	0	404	
14	0	0	0	0	422	
15	0	0	0	0	435	
0	0	0	0	0	442	
1	0	0	0	0	457	
2	0	0	0	0	523	
3	0	0	0	0	604	
4	0	0	0	0	617	
5	0	0	0	0	577	
6	0	0	0	0	537	
7	0	0	0	0	547	
8	0	0	0	0	532	
9	0	0	0	0	487	
10	0	0	0	0	475	
11	0	0	0	0	506	
12	0	0	0	0	548	
13	0	0	0	0	538	
14	0	0	0	0	541	
15	0	0	0	0	579	
0	0	0	0	0	571	
1	0	0	0	0	541	
2	0	0	0	0	485	
3	0	0	0	0	434	
4	0	0	0	0	430	
5	0	0	0	0	422	
6	0	0	0	0	451	
7	0	0	0	0	460	
8	0	0	0	0	433	
9	0	0	0	0	380	
10	0	0	0	0	491	
11	0	0	0	0	605	
12	0	0	0	0	561	
13	0	0	0	0	439	
14	0	0	0	0	385	
15	0	0	0	0	456	
0	0	0	0	0	594	
1	0	0	0	0	659	
2	0	0	0	0	675	
3	0	0	0	0	687	
4	0	0	0	0	677	
5	0	0	0	0	660	
6	0	0	0	0	612	
7	0	0	0	0	575	
8	0	0	0	0	536	
9	0	0	0	0	484	
10	0	0	0	0	419	
11	0	0	0	0	390	
12	0	0	0	0	377	
13	0	0	0	0	373	
14	0	0	0	0	433	
15	0	0	0	0	475	
0	0	0	0	0	464	
1	0	0	0	0	420	
2	0	0	0	0	438	
3	0	0	0	0	476	
4	0	0	0	0	535	
5	0	0	0	0	501	
6	0	0	0	0	545	
7	0	0	0	0	562	
8	0	0	0	0	510	
9	0	0	0	0	495	
10	0	0	0	0	495	
11	0	0	0	0	509	
12	0	0	0	0	559	
13	0	0	0	0	592	
14	0	0	0	0	615	
15	0	0	0	0	675	
0	0	0	0	0	655	
1	0	0	0	0	561	
2	0	0	0	0	476	
3	0	0	0	0	438	
4	0	0	0	0	435	
5	0	0	0	0	451	
6	0	0	0	0	452	
7	0	0	0	0	438	
8	0	0	0	0	417	
9	0	0	0	0	413	
10	0	0	0	0	432	
11	0	0	0	0	444	
12	0	0	0	0	467	
13	0	0	0	0	502	
14	0	0	0	0	549	
15	0	0	0	0	543	
0	0	0	0	0	515	
1	0	0	0	0	486	
2	0	0	0	0	489	
3	0	0	0	0	533	
4	0	0	0	0	555	
5	0	0	0	0	555	
6	0	0	0	0	531	
7	0	0	0	0	495	
8	0	0	0	0	489	
9	0	0	0	0	518	
10	0	0	0	0	500	
11	0	0	0	0	452	
12	0	0	0	0	471	
13	0	0	0	0	466	
14	0	0	0	0	472	
15	0	0	0	0	412	
0	0	0	0	0	352	
1	0	0	0	0	411	
2	0	0	0	0	483	
3	0	0	0	0	570	
4	0	0	0	0	692	
5	0	0	0	0	740	
6	0	0	0	0	701	
7	0	0	0	0	648	
8	0	0	0	0	608	
9	0	0	0	0	598	
10	0	0	0	0	582	
11	0	0	0	0	588	
12	0	0	0	0	549	
13	0	0	0	0	531	
14	0	0	0	0	493	
15	0	0	0	0	446	
0	0	0	0	0	422	
1	0	0	0	0	423	
2	0	0	0	0	427	
3	0	0	0	0	411	
4	0	0	0	0	386	
5	0	0	0	0	364	
6	0	0	0	0	378	
7	0	0	0	0	405	
8	0	0	0	0	385	
9	0	0	0	0	440	
10	0	0	0	0	479	
11	0	0	0	0	516	
12	0	0	0	0	565	
13	0	0	0	0	554	
14	0	0	0	0	514	
15	0	0	0	0	548	
0	0	0	0	0	588	
1	0	0	0	0	673	
2	0	0	0	0	727	
3	0	0	0	0	679	
4	0	0	0	0	641	
5	0	0	0	0	600	
6	0	0	0	0	552	
7	0	0	0	0	459	
8	0	0	0	0	451	
9	0	0	0	0	454	
10	0	0	0	0	423	
11	0	0	0	0	431	
12	0	0	0	0	454	
13	0	0	0	0	457	
14	0	0	0	0	428	
15	0	0	0	0	430	
0	0	0	0	0	420	
1	0	0	0	0	478	
2	0	0	0	0	510	
3	0	0	0	0	549	
4	0	0	0	0	516	
5	0	0	0	0	489	
6	0	0	0	0	461	
7	0	0	0	0	491	
8	0	0	0	0	530	
9	0	0	0	0	499	
10	0	0	0	0	515	
11	0	0	0	0	503	
12	0	0	0	0	496	
13	0	0	0	0	522	
14	0	0	0	0	605	
15	0	0	0	0	651	
0	0	0	0	0	620	
1	0	0	0	0	540	
2	0	0	0	0	475	
3	0	0	0	0	431	
4	0	0	0	0	416	
5	0	0	0	0	432	
6	0	0	0	0	490	
7	0	0	0	0	564	
8	0	0	0	0	560	
9	0	0	0	0	556	
10	0	0	0	0	565	
11	0	0	0	0	593	
12	0	0	0	0	560	
13	0	0	0	0	511	
14	0	0	0	0	489	
15	0	0	0	0	491	
0	0	0	0	0	472	
1	0	0	0	0	484	
2	0	0	0	0	524	
3	0	0	0	0	521	
4	0	0	0	0	478	
5	0	0	0	0	467	
6	0	0	0	0	468	
7	0	0	0	0	453	
8	0	0	0	0	423	
9	0	0	0	0	405	
10	0	0	0	0	407	
11	0	0	0	0	410	
12	0	0	0	0	417	
13	0	0	0	0	419	
14	0	0	0	0	431	
15	0	0	0	0	485	
0	0	0	0	0	565	
1	0	0	0	0	633	
2	0	0	0	0	659	
3	0	0	0	0	642	
4	0	0	0	0	607	
5	0	0	0	0	590	
6	0	0	0	0	593	
7	0	0	0	0	584	
8	0	0	0	0	568	
9	0	0	0	0	553	
10	0	0	0	0	545	
11	0	0	0	0	564	
12	0	0	0	0	536	
13	0	0	0	0	498	
14	0	0	0	0	499	
15	0	0	0	0	468	
0	0	0	0	0	440	
1	0	0	0	0	411	
2	0	0	0	0	413	
3	0	0	0	0	442	
4	0	0	0	0	478	
5	0	0	0	0	512	
6	0	0	0	0	463	
7	0	0	0	0	408	
8	0	0	0	0	394	
9	0	0	0	0	421	
10	0	0	0	0	501	
11	0	0	0	0	540	
12	0	0	0	0	562	
13	0	0	0	0	610	
14	0	0	0	0	655	
15	0	0	0	0	574	
0	0	0	0	0	493	
1	0	0	0	0	529	
2	0	0	0	0	566	
3	0	0	0	0	605	
4	0	0	0	0	601	
5	0	0	0	0	551	
6	0	0	0	0	543	
7	0	0	0	0	521	
8	0	0	0	0	468	
9	0	0	0	0	475	
10	0	0	0	0	472	
11	0	0	0	0	436	
12	0	0	0	0	384	
13	0	0	0	0	360	
14	0	0	0	0	372	
15	0	0	0	0	398	
0	0	0	0	0	444	
1	0	0	0	0	514	
2	0	0	0	0	528	
3	0	0	0	0	498	
4	0	0	0	0	487	
5	0	0	0	0	496	
6	0	0	0	0	519	
7	0	0	0	0	507	
8	0	0	0	0	514	
9	0	0	0	0	542	
10	0	0	0	0	534	
11	0	0	0	0	500	
12	0	0	0	0	558	
13	0	0	0	0	630	
14	0	0	0	0	679	
15	0	0	0	0	600	
0	0	0	0	0	529	
1	0	0	0	0	558	
2	0	0	0	0	573	
3	0	0	0	0	586	
4	0	0	0	0	623	
5	0	0	0	0	599	
6	0	0	0	0	543	
7	0	0	0	0	472	
8	0	0	0	0	453	
9	0	0	0	0	419	
10	0	0	0	0	390	
11	0	0	0	0	442	
12	0	0	0	0	425	
13	0	0	0	0	397	
14	0	0	0	0	398	
15	0	0	0	0	389	
0	0	0	0	0	363	
1	0	0	0	0	411	
2	0	0	0	0	420	
3	0	0	0	0	499	
4	0	0	0	0	555	
5	0	0	0	0	598	
6	0	0	0	0	609	
7	0	0	0	0	590	
8	0	0	0	0	593	
9	0	0	0	0	585	
10	0	0	0	0	573	
11	0	0	0	0	549	
12	0	0	0	0	551	
13	0	0	0	0	567	
14	0	0	0	0	579	
15	0	0	0	0	590	
0	0	0	0	0	569	
1	0	0	0	0	485	
2	0	0	0	0	427	
3	0	0	0	0	430	
4	0	0	0	0	487	
5	0	0	0	0	476	
6	0	0	0	0	580	
7	0	0	0	0	639	
8	0	0	0	0	632	
9	0	0	0	0	535	
10	0	0	0	0	480	
11	0	0	0	0	452	
12	0	0	0	0	382	
13	0	0	0	0	322	
14	0	0	0	0	325	
15	0	0	0	0	367	
0	0	0	0	0	376	
1	0	0	0	0	385	
2	0	0	0	0	450	
3	0	0	0	0	542	
4	0	0	0	0	558	
5	0	0	0	0	608	
6	0	0	0	0	697	
7	0	0	0	0	641	
8	0	0	0	0	532	
9	0	0	0	0	488	
10	0	0	0	0	467	
11	0	0	0	0	481	
12	0	0	0	0	578	
13	0	0	0	0	624	
14	0	0	0	0	609	
15	0	0	0	0	541	
0	0	0	0	0	514	
1	0	0	0	0	513	
2	0	0	0	0	519	
3	0	0	0	0	521	
4	0	0	0	0	514	
5	0	0	0	0	480	
6	0	0	0	0	455	
7	0	0	0	0	411	
8	0	0	0	0	400	
9	0	0	0	0	432	
10	0	0	0	0	449	
11	0	0	0	0	440	
12	0	0	0	0	450	
13	0	0	0	0	513	
14	0	0	0	0	562	
15	0	0	0	0	563	
0	0	0	0	0	583	
1	0	0	0	0	574	
2	0	0	0	0	537	
3	0	0	0	0	481	
4	0	0	0	0	485	
5	0	0	0	0	491	
6	0	0	0	0	542	
7	0	0	0	0	580	
8	0	0	0	0	580	
9	0	0	0	0	553	
10	0	0	0	0	506	
11	0	0	0	0	480	
12	0	0	0	0	489	
13	0	0	0	0	501	
14	0	0	0	0	548	
15	0	0	0	0	559	
0	0	0	0	0	530	
1	0	0	0	0	517	
2	0	0	0	0	526	
3	0	0	0	0	535	
4	0	0	0	0	480	
5	0	0	0	0	428	
6	0	0	0	0	449	
7	0	0	0	0	448	
8	0	0	0	0	464	
9	0	0	0	0	498	
10	0	0	0	0	507	
11	0	0	0	0	475	
12	0	0	0	0	489	
13	0	0	0	0	508	
14	0	0	0	0	490	
15	0	0	0	0	476	
0	0	0	0	0	466	
1	0	0	0	0	486	
2	0	0	0	0	467	
3	0	0	0	0	443	
4	0	0	0	0	462	
5	0	0	0	0	536	
6	0	0	0	0	572	
7	0	0	0	0	493	
8	0	0	0	0	532	
9	0	0	0	0	552	
10	0	0	0	0	571	
11	0	0	0	0	583	
12	0	0	0	0	591	
13	0	0	0	0	536	
14	0	0	0	0	512	
15	0	0	0	0	546	
0	0	0	0	0	597	
1	0	0	0	0	567	
2	0	0	0	0	516	
3	0	0	0	0	465	
4	0	0	0	0	461	
5	0	0	0	0	451	
6	0	0	0	0	448	
7	0	0	0	0	528	
8	0	0	0	0	543	
9	0	0	0	0	529	
10	0	0	0	0	547	
11	0	0	0	0	561	
12	0	0	0	0	528	
13	0	0	0	0	512	
14	0	0	0	0	483	
15	0	0	0	0	468	
0	0	0	0	0	439	
1	0	0	0	0	465	
2	0	0	0	0	465	
3	0	0	0	0	476	
4	0	0	0	0	491	
5	0	0	0	0	493	
6	0	0	0	0	513	
7	0	0	0	0	517	
8	0	0	0	0	503	
9	0	0	0	0	520	
10	0	0	0	0	517	
11	0	0	0	0	502	
12	0	0	0	0	483	
13	0	0	0	0	496	
14	0	0	0	0	525	
15	0	0	0	0	505	
0	0	0	0	0	511	
1	0	0	0	0	532	
2	0	0	0	0	537	
3	0	0	0	0	516	
4	0	0	0	0	525	
5	0	0	0	0	484	
6	0	0	0	0	476	
7	0	0	0	0	470	
8	0	0	0	0	440	
9	0	0	0	0	390	
10	0	0	0	0	372	
11	0	0	0	0	441	
12	0	0	0	0	543	
13	0	0	0	0	639	
14	0	0	0	0	607	
15	0	0	0	0	573	
0	0	0	0	0	521	
1	0	0	0	0	560	
2	0	0	0	0	591	
3	0	0	0	0	555	
4	0	0	0	0	560	
5	0	0	0	0	552	
6	0	0	0	0	529	
7	0	0	0	0	591	
8	0	0	0	0	501	
9	0	0	0	0	412	
10	0	0	0	0	390	
11	0	0	0	0	361	
12	0	0	0	0	413	
13	0	0	0	0	395	
14	0	0	0	0	345	
15	0	0	0	0	355	
0	0	0	0	0	419	
1	0	0	0	0	481	
2	0	0	0	0	598	
3	0	0	0	0	651	
4	0	0	0	0	566	
5	0	0	0	0	484	
6	0	0	0	0	529	
7	0	0	0	0	610	
8	0	0	0	0	696	
9	0	0	0	0	743	
10	0	0	0	0	797	
11	0	0	0	0	775	
12	0	0	0	0	687	
13	0	0	0	0	585	
14	0	0	0	0	526	
15	0	0	0	0	487	
0	0	0	0	0	447	
1	0	0	0	0	449	
2	0	0	0	0	451	
3	0	0	0	0	427	
4	0	0	0	0	416	
5	0	0	0	0	408	
6	0	0	0	0	419	
7	0	0	0	0	410	
8	0	0	0	0	409	
9	0	0	0	0	364	
10	0	0	0	0	339	
11	0	0	0	0	373	
12	0	0	0	0	399	
13	0	0	0	0	467	
14	0	0	0	0	551	
15	0	0	0	0	585	
0	0	0	0	0	543	
1	0	0	0	0	536	
2	0	0	0	0	558	
3	0	0	0	0	579	
4	0	0	0	0	580	
5	0	0	0	0	566	
6	0	0	0	0	561	
7	0	0	0	0	559	
8	0	0	0	0	522	
9	0	0	0	0	480	
10	0	0	0	0	454	
11	0	0	0	0	435	
12	0	0	0	0	401	
13	0	0	0	0	390	
14	0	0	0	0	366	
15	0	0	0	0	387	
0	0	0	0	0	473	
1	0	0	0	0	569	
2	0	0	0	0	564	
3	0	0	0	0	571	
4	0	0	0	0	559	
5	0	0	0	0	483	
6	0	0	0	0	454	
7	0	0	0	0	522	
8	0	0	0	0	603	
9	0	0	0	0	679	
10	0	0	0	0	696	
11	0	0	0	0	738	
12	0	0	0	0	695	
13	0	0	0	0	615	
14	0	0	0	0	465	
15	0	0	0	0	446	
0	0	0	0	0	458	
1	0	0	0	0	407	
2	0	0	0	0	367	
3	0	0	0	0	347	
4	0	0	0	0	315	
5	0	0	0	0	324	
6	0	0	0	0	369	
7	0	0	0	0	415	
8	0	0	0	0	470	
9	0	0	0	0	515	
10	0	0	0	0	598	
11	0	0	0	0	723	
12	0	0	0	0	710	
13	0	0	0	0	508	
14	0	0	0	0	400	
15	0	0	0	0	421	
0	0	0	0	0	512	
1	0	0	0	0	619	
2	0	0	0	0	707	
3	0	0	0	0	714	
4	0	0	0	0	675	
5	0	0	0	0	654	
6	0	0	0	0	615	
7	0	0	0	0	543	
8	0	0	0	0	556	
9	0	0	0	0	530	
10	0	0	0	0	465	
11	0	0	0	0	374	
12	0	0	0	0	350	
13	0	0	0	0	341	
14	0	0	0	0	362	
15	0	0	0	0	375	
0	0	0	0	0	407	
1	0	0	0	0	450	
2	0	0	0	0	434	
3	0	0	0	0	468	
4	0	0	0	0	472	
5	0	0	0	0	462	
6	0	0	0	0	464	
7	0	0	0	0	448	
8	0	0	0	0	428	
9	0	0	0	0	494	
10	0	0	0	0	556	
11	0	0	0	0	616	
12	0	0	0	0	737	
13	0	0	0	0	788	
14	0	0	0	0	711	
15	0	0	0	0	663	
0	0	0	0	0	564	
1	0	0	0	0	462	
2	0	0	0	0	391	
3	0	0	0	0	389	
4	0	0	0	0	419	
5	0	0	0	0	426	
6	0	0	0	0	399	
7	0	0	0	0	425	
8	0	0	0	0	469	
9	0	0	0	0	522	
10	0	0	0	0	620	
11	0	0	0	0	699	
12	0	0	0	0	595	
13	0	0	0	0	452	
14	0	0	0	0	400	
15	0	0	0	0	407	
0	0	0	0	0	414	
1	0	0	0	0	464	
2	0	0	0	0	533	
3	0	0	0	0	565	
4	0	0	0	0	551	
5	0	0	0	0	527	
6	0	0	0	0	512	
7	0	0	0	0	458	
8	0	0	0	0	439	
9	0	0	0	0	468	
10	0	0	0	0	493	
11	0	0	0	0	499	
12	0	0	0	0	537	
13	0	0	0	0	564	
14	0	0	0	0	539	
15	0	0	0	0	515	
0	0	0	0	0	463	
1	0	0	0	0	453	
2	0	0	0	0	473	
3	0	0	0	0	463	
4	0	0	0	0	495	
5	0	0	0	0	618	
6	0	0	0	0	677	
7	0	0	0	0	619	
8	0	0	0	0	526	
9	0	0	0	0	501	
10	0	0	0	0	487	
11	0	0	0	0	477	
12	0	0	0	0	544	
13	0	0	0	0	604	
14	0	0	0	0	646	
15	0	0	0	0	632	
0	0	0	0	0	562	
1	0	0	0	0	504	
2	0	0	0	0	440	
3	0	0	0	0	373	
4	0	0	0	0	304	
5	0	0	0	0	266	
6	0	0	0	0	283	
7	0	0	0	0	296	
8	0	0	0	0	393	
9	0	0	0	0	556	
10	0	0	0	0	597	
11	0	0	0	0	643	
12	0	0	0	0	604	
13	0	0	0	0	547	
14	0	0	0	0	507	
15	0	0	0	0	539	
0	0	0	0	0	568	
1	0	0	0	0	594	
2	0	0	0	0	664	
3	0	0	0	0	708	
4	0	0	0	0	666	
5	0	0	0	0	615	
6	0	0	0	0	555	
7	0	0	0	0	473	
8	0	0	0	0	433	
9	0	0	0	0	396	
10	0	0	0	0	388	
11	0	0	0	0	434	
12	0	0	0	0	413	
13	0	0	0	0	336	
14	0	0	0	0	362	
15	0	0	0	0	456	
0	0	0	0	0	456	
1	0	0	0	0	474	
2	0	0	0	0	540	
3	0	0	0	0	565	
4	0	0	0	0	588	
5	0	0	0	0	530	
6	0	0	0	0	457	
7	0	0	0	0	447	
8	0	0	0	0	452	
9	0	0	0	0	551	
10	0	0	0	0	618	
11	0	0	0	0	653	
12	0	0	0	0	667	
13	0	0	0	0	633	
14	0	0	0	0	619	
15	0	0	0	0	572	
0	0	0	0	0	502	
1	0	0	0	0	473	
2	0	0	0	0	480	
3	0	0	0	0	434	
4	0	0	0	0	433	
5	0	0	0	0	382	
6	0	0	0	0	383	
7	0	0	0	0	442	
8	0	0	0	0	567	
9	0	0	0	0	611	
10	0	0	0	0	539	
11	0	0	0	0	408	
12	0	0	0	0	329	
13	0	0	0	0	305	
14	0	0	0	0	391	
15	0	0	0	0	547	
0	0	0	0	0	647	
1	0	0	0	0	649	
2	0	0	0	0	649	
3	0	0	0	0	654	
4	0	0	0	0	615	
5	0	0	0	0	611	
6	0	0	0	0	594	
7	0	0	0	0	555	
8	0	0	0	0	483	
9	0	0	0	0	395	
10	0	0	0	0	370	
11	0	0	0	0	403	
12	0	0	0	0	423	
13	0	0	0	0	505	
14	0	0	0	0	599	
15	0	0	0	0	657	
0	0	0	0	0	607	
1	0	0	0	0	458	
2	0	0	0	0	332	
3	0	0	0	0	277	
4	0	0	0	0	334	
5	0	0	0	0	423	
6	0	0	0	0	538	
7	0	0	0	0	584	
8	0	0	0	0	567	
9	0	0	0	0	549	
10	0	0	0	0	567	
11	0	0	0	0	611	
12	0	0	0	0	663	
13	0	0	0	0	654	
14	0	0	0	0	598	
15	0	0	0	0	533	
0	0	0	0	0	510	
1	0	0	0	0	492	
2	0	0	0	0	507	
3	0	0	0	0	482	
4	0	0	0	0	451	
5	0	0	0	0	432	
6	0	0	0	0	395	
7	0	0	0	0	355	
8	0	0	0	0	396	
9	0	0	0	0	474	
10	0	0	0	0	484	
11	0	0	0	0	437	
12	0	0	0	0	401	
13	0	0	0	0	433	
14	0	0	0	0	469	
15	0	0	0	0	570	
0	0	0	0	0	688	
1	0	0	0	0	676	
2	0	0	0	0	609	
3	0	0	0	0	548	
4	0	0	0	0	452	
5	0	0	0	0	439	
6	0	0	0	0	458	
7	0	0	0	0	503	
8	0	0	0	0	515	
9	0	0	0	0	499	
10	0	0	0	0	531	
11	0	0	0	0	569	
12	0	0	0	0	600	
13	0	0	0	0	584	
14	0	0	0	0	520	
15	0	0	0	0	565	
0	0	0	0	0	589	
1	0	0	0	0	601	
2	0	0	0	0	566	
3	0	0	0	0	491	
4	0	0	0	0	405	
5	0	0	0	0	448	
6	0	0	0	0	469	
7	0	0	0	0	465	
8	0	0	0	0	455	
9	0	0	0	0	487	
10	0	0	0	0	496	
11	0	0	0	0	481	
12	0	0	0	0	488	
13	0	0	0	0	499	
14	0	0	0	0	534	
15	0	0	0	0	550	
0	0	0	0	0	522	
1	0	0	0	0	534	
2	0	0	0	0	497	
3	0	0	0	0	508	
4	0	0	0	0	532	
5	0	0	0	0	523	
6	0	0	0	0	497	
7	0	0	0	0	463	
8	0	0	0	0	459	
9	0	0	0	0	395	
10	0	0	0	0	420	
11	0	0	0	0	535	
12	0	0	0	0	531	
13	0	0	0	0	494	
14	0	0	0	0	542	
15	0	0	0	0	569	
0	0	0	0	0	482	
1	0	0	0	0	431	
2	0	0	0	0	440	
3	0	0	0	0	513	
4	0	0	0	0	540	
5	0	0	0	0	632	
6	0	0	0	0	565	
7	0	0	0	0	429	
8	0	0	0	0	393	
9	0	0	0	0	408	
10	0	0	0	0	484	
11	0	0	0	0	560	
12	0	0	0	0	658	
13	0	0	0	0	623	
14	0	0	0	0	522	
15	0	0	0	0	471	
0	0	0	0	0	449	
1	0	0	0	0	430	
2	0	0	0	0	473	
3	0	0	0	0	519	
4	0	0	0	0	559	
5	0	0	0	0	572	
6	0	0	0	0	507	
7	0	0	0	0	423	
8	0	0	0	0	391	
9	0	0	0	0	430	
10	0	0	0	0	481	
11	0	0	0	0	523	
12	0	0	0	0	614	
13	0	0	0	0	655	
14	0	0	0	0	532	
15	0	0	0	0	408	
0	0	0	0	0	416	
1	0	0	0	0	459	
2	0	0	0	0	605	
3	0	0	0	0	751	
4	0	0	0	0	812	
5	0	0	0	0	787	
6	0	0	0	0	679	
7	0	0	0	0	609	
8	0	0	0	0	517	
9	0	0	0	0	433	
10	0	0	0	0	355	
11	0	0	0	0	292	
12	0	0	0	0	304	
13	0	0	0	0	319	
14	0	0	0	0	341	
15	0	0	0	0	422	
0	0	0	0	0	458	
1	0	0	0	0	477	
2	0	0	0	0	508	
3	0	0	0	0	499	
4	0	0	0	0	516	
5	0	0	0	0	538	
6	0	0	0	0	535	
7	0	0	0	0	452	
8	0	0	0	0	475	
9	0	0	0	0	566	
10	0	0	0	0	634	
11	0	0	0	0	697	
12	0	0	0	0	718	
13	0	0	0	0	688	
14	0	0	0	0	632	
15	0	0	0	0	569	
0	0	0	0	0	510	
1	0	0	0	0	377	
2	0	0	0	0	253	
3	0	0	0	0	223	
4	0	0	0	0	288	
5	0	0	0	0	368	
6	0	0	0	0	463	
7	0	0	0	0	613	
8	0	0	0	0	691	
9	0	0	0	0	692	
10	0	0	0	0	598	
11	0	0	0	0	503	
12	0	0	0	0	400	
13	0	0	0	0	367	
14	0	0	0	0	443	
15	0	0	0	0	535	
0	0	0	0	0	600	
1	0	0	0	0	583	
2	0	0	0	0	539	
3	0	0	0	0	523	
4	0	0	0	0	527	
5	0	0	0	0	515	
6	0	0	0	0	512	
